6133,44834472721	6133,35127320187	6133,25807797504	6133,16898428908	6133,08324742059	6132,99941628007	6132,91573921752	6132,83061748010	6132,74300324061	6132,65265297226	6132,56018004404	6132,46689550354	6132,37447332285	6132,28451571854	6132,19811711079	6132,11552701460	6132,03599236695	6131,95782275531	6131,87867558367	6131,79601213558	6131,70763931899	6131,61223296012	6131,50974051049	6131,40158322080	6131,29061538181	6131,18084332603	6131,07695046705	6130,98370833765	6130,90537132577	6130,84515198164	6130,80485551273	6130,78472081969	6130,78347779395	6130,79859400740	6130,82665507267	6130,86380657414	6130,90618356850	6130,95026532308	6130,99311478974	6131,03248925957	6131,06683514390	6131,09520090968	6131,11711436868	6131,13247227167	6131,14148203925	6131,14467975510	6131,14302868310	6131,13808240081	6131,13217975847	6131,12862805646	6131,13182771567	6131,14729665543	6131,18156475672	6131,24192635579	6131,33605918475	6131,47153871114	6131,65529458481	6131,89306835644	6132,18893688106	6132,54496281572	6132,96102235643	6133,43484194212	6133,96225221224	6134,53764192935	6135,15457008946	6135,80647409950	6136,48739817058	6137,19266058248	6137,91938195555	6138,66680904674	6139,43638904268	6140,23157623635	6141,05738381944	6141,91972484864	6142,82461414154	6143,77732276452	6144,78158551497	6145,83895755247	6146,94839927980	6148,10614088163	6149,30584333531	6150,53903590774	6151,79577612494	6153,06545156817	6154,33762723909	6155,60283967607	6156,85324950142	6158,08308556103	6159,28884256825	6160,46922566040	6161,62486513905	6162,75784937120	6163,87114101692	6164,96795017062	6166,05113735797	6167,12271018531	6168,18346127025	6169,23277427398	6170,26860247225	6171,28760357502	6172,28539819366	6173,25690923697	6174,19673620072	6175,09952138040	6175,96027332288	6176,77462469499	6177,53901518708	6178,25080285460	6178,90831719459	6179,51087243845	6180,05875910729	6180,55322617879	6180,99645690504	6181,39153098957	6181,74235739475	6182,05355805177	6182,33028478476	6182,57796012062	6182,80194619934	6183,00716230570	6183,19768731913	6183,37639508303	6183,54467530200	6183,70228830229	6183,84738877455	6183,97673320331	6184,08606126597	6184,17061700681	6184,22575495773	6184,24756272082	6184,23342676156	6184,18247282330	6184,09582573633	6183,97665371734	6183,82998709108	6183,66232784392	6183,48109148700	6183,29394336772	6183,10810514333	6182,92971156942	6182,76329198014	6182,61143504406	6182,47467122312	6182,35157792360	6182,23908181738	6182,13290600337	6182,02809112629	6181,91951273262	6181,80232358961	6181,67226857964	6181,52584778877	6181,36033520918	6181,17368970638	6180,96441545909	6180,73143643614	6180,47404174661	6180,19193716487	6179,88540709713	6179,55555725913	6179,20457883952	6178,83595676766	6178,45454261038	6178,06642811336	6177,67858637833	6177,29828876763	6176,93234930332	6176,58628637894	6176,26351679332	6175,96470452402	6175,68737448121	6175,42587122008	6175,17169866083	6174,91422577633	6174,64169247918	6174,34240692334	6174,00599623108	6173,62456126406	6173,19359391219	6172,71254130434	6172,18494191608	6171,61810866632	6171,02238769860	6170,41007230589	6169,79409341641	6169,18663620742	6168,59784325146	6168,03475657415	6167,50062476193	6166,99465962173	6166,51227453654	6166,04577957695	6165,58545328449	6165,12086448050	6164,64228537646	6164,14202408892	6163,61551263917	6163,06201519421	6162,48486738658	6161,89121525043	6161,29128418408	6160,69726643356	6160,12196256965	6159,57734258087	6159,07320199951	6158,61607685063	6158,20854957501	6157,84903012727	6157,53203782690	6157,24894725182	6156,98910313868	6156,74116225852	6156,49449077484	6156,24043790862	6155,97332249299	6155,69100689703	6155,39498847870	6155,09000507829	6154,78321894540	6154,48310293743	6154,19819456990	6153,93590060089	6153,70152404956	6153,49764812155	6153,32395316968	6153,17747293253	6153,05322637499	6152,94510317787	6152,84684408611	6152,75294806667	6152,65935785858	6152,56382018639	6152,46587832987	6152,36652161489	6152,26757660808	6152,17096773761	6152,07799357724	6151,98875670955	6151,90185254486	6151,81437263841	6151,72222062431	6151,62068436033	6151,50516552217	6151,37194412256	6151,21885292283	6151,04575425694	6150,85474500032	6150,65005785196	6150,43767163764	6150,22468341517	6150,01852565162	6149,82612946458	6149,65313872490	6149,50327039742	6149,37789600357	6149,27589068582	6149,19376373318	6149,12605138921	6149,06592286598	6149,00592677867	6148,93879004927	6148,85817621173	6148,75931552299	6148,63943481172	6148,49793895056	6148,33632557935	6148,15784682437	6147,96696244535	6147,76865435792	6147,56768963003	6147,36792560639	6147,17174581344	6146,97969920728	6146,79039002475	6146,60063407125	6146,40586363885	6146,20073162260	6145,97983977398	6145,73849962714	6145,47342955089	6145,18329835461	6144,86904421075	6144,53392526575	6144,18329188659	6143,82410581386	6143,46426391642	6143,11180932303	6142,77412689204	6142,45722121858	6142,16516348563	6141,89977017395	6141,66054533971	6141,44488336124	6141,24849571989	6141,06599820798	6140,89157765354	6140,71965194433	6140,54544401691	6140,36540779203	6140,17746843595	6139,98106654082	6139,77702150726	6139,56724996847	6139,35438820943	6139,14137244342	6138,93102820098	6138,72571174803	6138,52703475383	6138,33569079166	6138,15139064672	6137,97290402762	6137,79819844101	6137,62466124535	6137,44938735427	6137,26951178830	6137,08256269584	6136,88680658063	6136,68155391184	6136,46739117077	6136,24630605598	6136,02167727733	6135,79810992700	6135,58111186878	6135,37662498949	6135,19044550946	6135,02758697045	6134,89165466902	6134,78430800427	6134,70488512221	6134,65025143358	6134,61491084442	6134,59138835984	6134,57085895517	6134,54396488803	6134,50173663626	6134,43651539882	6134,34277030149	6134,21771211064	6134,06162654273	6133,87788164451	6133,67260138589	6133,45403697123	6133,23170366314	6133,01537971749	6132,81408176174	6132,63513522871	6132,48344838786	6132,36107486628	6132,26711478350	6132,19796272764	6132,14786691223	6132,10972368866	6132,07600072138	6132,03966522398	6131,99499369926	6131,93815735091	6131,86751083207	6131,78355675123	6131,68860770964	6131,58621373799	6131,48045806126	6131,37524190869	6131,27367617053	6131,17767431126	6131,08780112488	6131,00338293643	6130,92283593666	6130,84412990299	6130,76528234594	6130,68477754666	6130,60182610185	6130,51641906314	6130,42917845857	6130,34105276646	6130,25294169796	6130,16535159578	6130,07817699433	6129,99067639224	6129,90166674956	6129,80991087433	6129,71462554653	6129,61600607180	6129,51565219670	6129,41679369413	6129,32424906793	6129,24410072097	6129,18312444599	6129,14805915238	6129,14483468119	6129,17788516777	6129,24966112771	6129,36041854576	6129,50831500316	6129,68979088984	6129,90016790703	6130,13436556742	6130,38762421746	6130,65613121394	6130,93747232690	6131,23086715955	6131,53718760490	6131,85879424468	6132,19925073764	6132,56298683854	6132,95497607476	6133,38047663456	6133,84485833300	6134,35351047933	6134,91180097587	6135,52504094775	6136,19840479999	6136,93676377532	6137,74441042617	6138,62467829778	6139,57949026307	6140,60889433623	6141,71066186871	6142,88002592216	6144,10962598994	6145,38970060087	6146,70853563479	6148,05313894983	6149,41007726065	6150,76638477543	6152,11043930794	6153,43270293116	6154,72624084322	6155,98696151827	6157,21355868421	6158,40717505958	6159,57084280214	6160,70878113409	6161,82564453959	6162,92581453655	6164,01281557741	6165,08891380722	6166,15492967235	6167,21026556164	6168,25312163349	6169,28085026247	6170,29038487703	6171,27867389325	6172,24305507761	6173,18151874563	6174,09282749236	6174,97648289844	6175,83255293097	6176,66139466572	6177,46332277961	6178,23828271715	6178,98558705055	6179,70376409074	6180,39055049055	6181,04303700364	6181,65795224218	6182,23204702028	6182,76252513672	6183,24745783461	6183,68612006800	6184,07919708860	6184,42882825996	6184,73847859967	6185,01265359647	6185,25649530230	6185,47531399145	6185,67411739954	6185,85719786436	6186,02782733370	6186,18809320351	6186,33888710431	6186,48003713988	6186,61055464183	6186,72895176134	6186,83357808137	6186,92292401959	6186,99584629147	6187,05168525230	6187,09026360197	6187,11177782627	6187,11661431511	6187,10513762277	6187,07750556579	6187,03356269261	6186,97284975830	6186,89474394040	6186,79871639720	6186,68466564539	6186,55326289092	6186,40623399649	6186,24650548910	6186,07815950244	6185,90617244064	6185,73594945282	6185,57270485697	6185,42077042301	6185,28293291322	6185,15990564535	6185,05002509120	6184,94923459886	6184,85137768426	6184,74877908601	6184,63304961594	6184,49601698052	6184,33066402941	6184,13195117152	6183,89741163617	6183,62743536091	6183,32519623110	6182,99622344031	6182,64766521722	6182,28733601185	6181,92267060392	6181,55972555416	6181,20236668574	6180,85175990346	6180,50624343461	6180,16160711011	6179,81174558610	6179,44959595005	6179,06822480370	6178,66190344565	6178,22700751682	6177,76260114650	6177,27061269380	6176,75557284429	6176,22395597041	6175,68323048223	6175,14077200420	6174,60281585095	6174,07361802893	6173,55495773624	6173,04605518723	6172,54390689617	6172,04396909032	6171,54106158345	6171,03032982016	6170,50809808457	6169,97247251315	6169,42360312286	6168,86357931328	6168,29600032731	6167,72531812553	6167,15608490770	6166,59224560039	6166,03659702012	6165,49049531747	6164,95384080822	6164,42531541475	6163,90280332808	6163,38389832686	6162,86639556923	6162,34868099161	6161,82996273845	6161,31032832083	6160,79064939838	6160,27238510920	6159,75734928887	6159,24750485348	6158,74483189191	6158,25128947986	6157,76886160705	6157,29965197449	6156,84597670032	6156,41040168786	6155,99568293592	6155,60459062262	6155,23962614029	6154,90266900812	6154,59461167549	6154,31505022958	6154,06209596936	6153,83235739470	6153,62111735846	6153,42270043303	6153,23099601421	6153,04007803755	6152,84484602561	6152,64160656867	6152,42851961647	6152,20584896601	6151,97597879405	6151,74318509883	6151,51317937107	6151,29246868227	6151,08759888111	6150,90436330627	6150,74706643101	6150,61792892938	6150,51670752602	6150,44058055458	6150,38432053828	6150,34074157923	6150,30137595205	6150,25730537406	6150,20005196309	6150,12242492266	6150,01922304888	6149,88770996921	6149,72780651395	6149,54197917087	6149,33484059700	6149,11251280735	6148,88183153534	6148,64948801946	6148,42121021739	6148,20107887736	6147,99105623074	6147,79077879631	6147,59763426480	6147,40710942866	6147,21336535036	6147,00997070772	6146,79070710332	6146,55035281549	6146,28535478752	6145,99431235066	6145,67821888352	6145,34043680813	6144,98641348472	6144,62317651970	6144,25867251874	6143,90102982610	6143,55783103037	6143,23547447520	6142,93868704752	6142,67022614071	6142,43078107184	6142,21905798846	6142,03201168705	6141,86517588247	6141,71304163324	6141,56944107796	6141,42790767167	6141,28200069522	6141,12559652288	6140,95315821916	6140,75999631575	6140,54252700674	6140,29852153339	6140,02732588477	6139,73001756462	6139,40946021038	6139,07022009393	6138,71832168001	6138,36084077846	6138,00535962270	6137,65933339062	6137,32943705967	6137,02097087099	6136,73739977085	6136,48008703480	6136,24825715022	6136,03919200511	6135,84863257188	6135,67133074810	6135,50167717705	6135,33432351747	6135,16472252791	6134,98952512013	6134,80679707646	6134,61604517165	6134,41806851464	6134,21467216362	6134,00829383598	6133,80159973256	6133,59710252165	6133,39684498247	6133,20217903645	6133,01365448056	6132,83101702137	6132,65330294424	6132,47900892100	6132,30631030210	6132,13329944253	6131,95821657872	6131,77964887542	6131,59667797712	6131,40896234135	6131,21674748745	6131,02080473066	6130,82230656617	6130,62265408404	6130,42327797456	6130,22543907466	6130,03005622591	6129,83758776487	6129,64798781199	6129,46074969377	6129,27503697777	6129,08988904350	6128,90447474305	6128,71835673100	6128,53172264444	6128,34553926138	6128,16159303789	6127,98239489408	6127,81094735016	6127,65039536380	6127,50360471398	6127,37272927585	6127,25883713467	6127,16166250610	6127,07953512144	6127,00951269058	6126,94770912156	6126,88977689338	6126,83147263125	6126,76921636599	6126,70055141487	6126,62442497766	6126,54123799365	6126,45265210311	6126,36118487044	6126,26966374764	6126,18063693130	6126,09584954529	6126,01588387312	6125,94003387547	6125,86644186993	6125,79247676145	6125,71528769894	6125,63243317930	6125,54246995168	6125,44539164114	6125,34283277385	6125,23799495540	6125,13530061469	6125,03982702463	6124,95661083024	6124,88993475071	6124,84271035216	6124,81605423755	6124,80912332171	6124,81923402808	6124,84224733095	6124,87316342621	6124,90684195721	6124,93874955212	6124,96563693234	6124,98606173879	6125,00069742664	6125,01239893684	6125,02602784244	6125,04806903487	6125,08609425119	6125,14814238575	6125,24209132468	6125,37509100438	6125,55311377656	6125,78065831252	6126,06062036432	6126,39432126374	6126,78166643708	6127,22139402367	6127,71136924560	6128,24888336470	6128,83092540830	6129,45440790062	6130,11634172377	6130,81396718601	6131,54485621503	6132,30700304849	6133,09891768949	6133,91972867522	6134,76929126003	6135,64828637767	6136,55828717184	6137,50176540693	6138,48201077124	6139,50294214504	6140,56880077963	6141,68372997587	6142,85126281079	6144,07375682046	6145,35182986836	6146,68386190839	6148,06563032928	6149,49014022307	6150,94769492269	6152,42622790470	6153,91188757107	6155,38983537019	6156,84518934546	6158,26402343070	6159,63432093715	6160,94678098119	6162,19538991189	6163,37769504732	6164,49475210576	6165,55075581391	6166,55239966930	6167,50804046088	6168,42676203433	6169,31743903345	6170,18789509947	6171,04423310547	6171,89039047068	6172,72794413596	6173,55616125125	6174,37226654853	6175,17187842149	6175,94955435457	6176,69938267231	6177,41556067377	6178,09290754737	6178,72727240208	6179,31581186407	6179,85712674116	6180,35126206669	6180,79958813184	6181,20459058936	6181,56960421790	6181,89852677926	6182,19554653650	6182,46491007423	6182,71074729280	6182,93695940919	6183,14716517174	6183,34469181934	6183,53259174783	6183,71366398168	6183,89046132812	6184,06526885379	6184,24004600968	6184,41633216351	6184,59512245807	6184,77672708621	6184,96063185072	6185,14538104693	6185,32850509068	6185,50651467447	6185,67498025429	6185,82871004013	6185,96203123201	6186,06916818899	6186,14469821450	6186,18405195313	6186,18401286970	6186,14316116308	6186,06220403617	6185,94413832614	6185,79420394889	6185,61960692297	6185,42901690066	6185,23187283081	6185,03755748154	6184,85452283473	6184,68946025690	6184,54660957900	6184,42728920147	6184,32970630116	6184,24907498778	6184,17803487310	6184,10732763261	6184,02665937700	6183,92565593013	6183,79480907276	6183,62631542425	6183,41472504788	6183,15734157745	6182,85434595174	6182,50864740299	6182,12549397958	6181,71189715444	6181,27593878062	6180,82603310047	6180,37021247198	6179,91549491387	6179,46737713471	6179,02948108646	6178,60336740332	6178,18851657171	6177,78246859211	6177,38110383069	6176,97904108210	6176,57012312841	6176,14795524643	6175,70645854939	6175,24039832361	6174,74584819388	6174,22055438599	6173,66417062004	6173,07834301398	6172,46663523850	6171,83429622474	6171,18788502383	6170,53477901756	6169,88260181441	6169,23861527840	6168,60912578032	6167,99895739532	6167,41104363919	6166,84618352048	6166,30299641502	6165,77809337051	6165,26646074508	6164,76202756016	6164,25836360431	6163,74943474686	6163,23032871532	6162,69786175541	6162,15098593533	6161,59093848702	6161,02110658253	6160,44661936394	6159,87371827715	6159,30899042568	6158,75857178475	6158,22743336142	6157,71885201157	6157,23413993085	6156,77266702545	6156,33216484670	6155,90925707530	6155,50012702232	6155,10121313390	6154,70982228798	6154,32456770227	6153,94557014758	6153,57440183159	6153,21379432981	6152,86716797621	6152,53806443628	6152,22957357277	6151,94383988883	6151,68171514668	6151,44259649416	6151,22445883822	6151,02406151118	6150,83728681113	6150,65955455683	6150,48625333174	6150,31313475760	6150,13662967925	6149,95406148973	6149,76374877565	6149,56500427221	6149,35804790510	6149,14385762240	6148,92398294953	6148,70034369925	6148,47503149067	6148,25012624711	6148,02753499224	6147,80885689179	6147,59527683660	6147,38748963153	6147,18565739038	6146,98940327833	6146,79784462238	6146,60966718196	6146,42323985538	6146,23676538201	6146,04845802915	6145,85673440693	6145,66039920368	6145,45880463673	6145,25196158735	6145,04058235483	6144,82604003184	6144,61023758199	6144,39539026464	6144,18373712113	6143,97720938708	6143,77709414072	6143,58373826758	6143,39633907998	6143,21286236725	6143,03011589771	6142,84398729063	6142,64983187619	6142,44297193581	6142,21924754202	6141,97554514705	6141,71022647787	6141,42338911442	6141,11691123448	6140,79426391875	6140,46011045683	6140,11974711913	6139,77846734058	6139,44094564937	6139,11073561258	6138,78995722426	6138,47921643634	6138,17775865509	6137,88381653833	6137,59507828753	6137,30918263641	6137,02414509866	6136,73863735412	6136,45207462237	6136,16450782679	6135,87635958955	6135,58807672583	6135,29978976879	6135,01106830496	6134,72083981880	6134,42750370704	6134,12922866446	6133,82437989274	6133,51199135663	6133,19218425346	6132,86643903561	6132,53765355960	6132,20995909849	6131,88831110559	6131,57791375702	6131,28356828636	6131,00904930844	6130,75660855311	6130,52668324439	6130,31785149292	6130,12703632437	6129,94992082478	6129,78150606314	6129,61672569947	6129,45102852441	6129,28085172789	6129,10393011651	6128,91941488659	6128,72780457346	6128,53071574992	6128,33053867994	6128,13003198609	6127,93191073683	6127,73847582850	6127,55132153194	6127,37114515952	6127,19767016238	6127,02968301311	6126,86517550156	6126,70157734212	6126,53605859430	6126,36587664350	6126,18873803882	6126,00314156558	6125,80866634822	6125,60616873376	6125,39785547921	6125,18720934869	6124,97875694234	6124,77768678510	6124,58934661551	6124,41866956185	6124,26959585667	6124,14456616970	6124,04416146449	6123,96695093505	6123,90958459847	6123,86713338215	6123,83364198811	6123,80282469648	6123,76880805964	6123,72681257233	6123,67367110586	6123,60810533936	6123,53071942886	6123,44371655302	6123,35039060781	6123,25448355838	6123,15952139046	6123,06824361690	6122,98222209783	6122,90172786998	6122,82585668877	6122,75287430161	6122,68070083189	6122,60742834144	6122,53176176729	6122,45329182216	6122,37254540510	6122,29080704883	6122,20975408554	6122,13098841849	6122,05557075044	6121,98366410210	6121,91437223664	6121,84581950003	6121,77546951044	6121,70063094686	6121,61905918027	6121,52954038512	6121,43234422238	6121,32945205776	6121,22450570547	6121,12246949819	6121,02904719093	6120,94993620243	6120,89002825020	6120,85267377848	6120,83911732877	6120,84818490693	6120,87626754142	6120,91760391755	6120,96482558212	6121,00969614211	6121,04395485472	6121,06016674479	6121,05248565839	6121,01725162284	6120,95336659144	6120,86241962212	6120,74856027251	6120,61814437823	6120,47919699368	6120,34075154160	6120,21213146336	6120,10224104167	6120,01892640530	6119,96845729620	6119,95516647240	6119,98126814132	6120,04686095255	6120,15010602212	6120,28755719925	6120,45461010178	6120,64602891822	6120,85650597536	6121,08120874499	6121,31627221096	6121,55920097715	6121,80915455049	6122,06710002781	6122,33582790581	6122,61983775229	6122,92510985236	6123,25878567446	6123,62878348061	6124,04337562098	6124,51075168293	6125,03858794927	6125,63364002407	6126,30137319844	6127,04564464676	6127,86845245836	6128,76976766286	6129,74746531890	6130,79736812611	6131,91341024116	6133,08792020089	6134,31201104561	6135,57605446049	6136,87020590105	6138,18494107670	6139,51156217126	6140,84263517270	6142,17232686664	6143,49661958731	6144,81339147481	6146,12235799701	6147,42487632629	6148,72361871470	6150,02212615025	6151,32426116787	6152,63358962181	6153,95273481798	6155,28276139359	6156,62265736408	6157,96898712839	6159,31578266750	6160,65472262289	6161,97561925262	6163,26719377056	6164,51807629790	6165,71792482456	6166,85852640231	6167,93473065697	6168,94507531881	6169,89199650937	6170,78156924046	6171,62278837793	6172,42646711265	6173,20388796466	6173,96538086743	6174,71901709743	6175,46959396287	6176,21804515653	6176,96135186422	6177,69295975097	6178,40363792985	6179,08265840571	6179,71913624647	6180,30335620754	6180,82792114834	6181,28858829629	6181,68470562647	6182,01921521705	6182,29824583111	6182,53036607059	6182,72560646557	6182,89437996359	6183,04643394018	6183,18995387445	6183,33091207530	6183,47271865490	6183,61619149367	6183,75982251580	6183,90028397505	6184,03309436961	6184,15335135780	6184,25643926951	6184,33863048776	6184,39752066765	6184,43226403298	6184,44360295584	6184,43371190781	6184,40589649378	6184,36420142254	6184,31298587747	6184,25652099844	6184,19865338599	6184,14256292142	6184,09062555496	6184,04437496387	6184,00454368024	6183,97115621178	6183,94364454427	6183,92095980483	6183,90166138695	6183,88397448128	6183,86581655839	6183,84480107325	6183,81823134886	6183,78309893721	6183,73609922663	6183,67367367339	6183,59208395592	6183,48751954782	6183,35623718289	6183,19472839996	6182,99990935053	6182,76932473607	6182,50135471206	6182,19540989400	6181,85209580018	6181,47332515676	6181,06235562135	6180,62373264327	6180,16312293716	6179,68703337489	6179,20242232914	6178,71622435212	6178,23482277588	6177,76351631409	6177,30603298112	6176,86414595872	6176,43744052806	6176,02326893907	6175,61691223530	6175,21194656397	6174,80078887463	6174,37537582149	6173,92791269075	6173,45161847368	6172,94139040980	6172,39431721733	6171,80998455713	6171,19053765417	6170,54049202097	6169,86631078490	6169,17579288293	6168,47733726005	6167,77916171979	6167,08855964247	6166,41127287188	6165,75104528429	6165,10940063788	6164,48566294033	6163,87721099932	6163,27993425907	6162,68883716246	6162,09872590872	6161,50490542848	6160,90381567429	6160,29354431866	6159,67416661240	6159,04788105266	6158,41892987771	6157,79331425440	6157,17833336014	6156,58199264359	6156,01233808243	6155,47677943912	6154,98146596047	6154,53077262412	6154,12694419383	6153,76992875190	6153,45741336155	6153,18505400783	6152,94687232115	6152,73577520235	6152,54414236281	6152,36442224364	6152,18967912306	6152,01404284754	6151,83302611282	6151,64369060171	6151,44466033918	6151,23599622281	6151,01895809675	6150,79568885631	6150,56885852241	6150,34130531269	6150,11570627660	6149,89430316165	6149,67870101878	6149,46974872115	6149,26750292972	6149,07127065850	6148,87972070043	6148,69105067857	6148,50319406522	6148,31404976818	6148,12171553461	6147,92470542031	6147,72213115396	6147,51382784751	6147,30040670737	6147,08322166077	6146,86424338905	6146,64584308841	6146,43049886841	6146,22044907713	6146,01732756463	6145,82182417401	6145,63341771051	6145,45022670118	6145,26901452044	6145,08537002425	6144,89406397128	6144,68955759051	6144,46661591984	6144,22095865726	6143,94986875965	6143,65267664820	6143,33104702354	6142,98901558051	6142,63275209908	6142,27006065210	6141,90966222605	6141,56033496571	6141,23000825205	6140,92491592415	6140,64890983223	6140,40301798214	6140,18530384253	6139,99104830496	6139,81323758973	6139,64330374291	6139,47203376174	6139,29054259058	6139,09119686800	6138,86838156416	6138,61902015349	6138,34278880082	6138,04200285938	6137,72119528100	6137,38644607576	6137,04455434820	6136,70216492376	6136,36496682072	6136,03706955612	6135,72063667990	6135,41581762194	6135,12097452173	6134,83315700939	6134,54874188872	6134,26413227140	6133,97640570345	6133,68381400646	6133,38606643698	6133,08436694224	6132,78121844687	6132,48004449133	6132,18470452981	6131,89898958839	6131,62617878228	6131,36871666661	6131,12804152612	6130,90456209006	6130,69775163838	6130,50630974530	6130,32833638496	6130,16147122742	6130,00297010311	6129,84971586322	6129,69818604168	6129,54441883234	6129,38402740202	6129,21230833121	6129,02447364949	6128,81601071532	6128,58314514052	6128,32335493758	6128,03586455875	6127,72203953319	6127,38560782797	6127,03265222038	6126,67134600301	6126,31143781325	6125,96352518285	6125,63818565118	6125,34505500215	6125,09195173186	6124,88414412045	6124,72384168944	6124,60996822461	6124,53824199176	6124,50155418682	6124,49060335383	6124,49471561780	6124,50276154124	6124,50407247217	6124,48926319492	6124,45088275827	6124,38383933919	6124,28557455638	6124,15599371420	6123,99718679916	6123,81299683739	6123,60850459560	6123,38950012682	6123,16200256644	6122,93187181552	6122,70453270468	6122,48480826029	6122,27683837047	6122,08404742257	6121,90912185371	6121,75396643677	6121,61962462049	6121,50616942555	6121,41259209702	6121,33673064176	6121,27528535181	6121,22396134333	6121,17775957410	6121,13141089235	6121,07991756808	6121,01913959060	6120,94634463281	6120,86063534909	6120,76317754323	6120,65717681417	6120,54758593435	6120,44056477780	6120,34275248221	6120,26044138678	6120,19875925479	6120,16096772582	6120,14797078998	6120,15809972916	6120,18720472788	6120,22904362235	6120,27592063261	6120,31949737480	6120,35167866299	6120,36546861448	6120,35569864643	6120,31954676231	6120,25679443313	6120,16979982608	6120,06320008032	6119,94338668147	6119,81782301685	6119,69428894989	6119,58014191088	6119,48167712387	6119,40365223911	6119,34901630887	6119,31885337937	6119,31252131747	6119,32794128230	6119,36197632786	6119,41083156599	6119,47041393299	6119,53660566526	6119,60542895634	6119,67310538487	6119,73603743059	6119,79075601731	6119,83388422054	6119,86216184550	6119,87255971036	6119,86248952532	6119,83009008370	6119,77454838342	6119,69639992758	6119,59774884944	6119,48235649323	6119,35556516012	6119,22404846557	6119,09540655736	6118,97764851995	6118,87862157492	6118,80545453625	6118,76408053131	6118,75889216656	6118,79256347675	6118,86605046610	6118,97875946003	6119,12885315895	6119,31365069757	6119,53007144204	6119,77507267202	6120,04603750940	6120,34107953908	6120,65924238131	6121,00058422139	6121,36614787930	6121,75782607664	6122,17813933310	6122,62995070498	6123,11614736133	6123,63932324899	6124,20149886250	6124,80391235388	6125,44691018547	6126,12995523842	6126,85175656494	6127,61050938307	6128,40421852361	6129,23106558501	6130,08977157554	6130,97990431567	6131,90208397083	6132,85805040266	6133,85057124533	6134,88318780298	6135,95981492925	6137,08422908064	6138,25949411061	6139,48738561743	6140,76788027240	6142,09877504902	6143,47549155613	6144,89110266036	6146,33659367944	6147,80134163811	6149,27376753730	6150,74209274172	6152,19511531201	6153,62291802623	6155,01742795836	6156,37276704626	6157,68536153457	6158,95381134744	6160,17855302493	6161,36137631239	6162,50487026138	6163,61187731995	6164,68502362706	6165,72637345143	6166,73723007416	6167,71807963400	6168,66865319307	6169,58806880896	6170,47501118339	6171,32791108238	6172,14509808870	6172,92491502090	6173,66579669170	6174,36632613382	6175,02528581412	6175,64171930964	6176,21501183564	6176,74498850168	6177,23202012944	6177,67712022677	6178,08201449310	6178,44916604403	6178,78174446297	6179,08353341492	6179,35877847151	6179,61198289901	6179,84766386298	6180,07008472715	6180,28298117416	6180,48930017366	6180,69097164191	6180,88873289559	6181,08202525030	6181,26897969874	6181,44650396545	6181,61047619745	6181,75604147159	6181,87799703864	6181,97124195474	6182,03125770802	6182,05457973441	6182,03921619108	6181,98497061926	6181,89362954108	6181,76898470674	6181,61667243293	6181,44382862067	6181,25857645624	6181,06938277784	6180,88433647767	6180,71041574287	6180,55281819926	6180,41442742590	6180,29548005300	6180,19348005001	6180,10338233554	6180,01803903165	6179,92887183509	6179,82670672085	6179,70268600809	6179,54916056195	6179,36046343599	6179,13347621152	6178,86792001074	6178,56633277304	6178,23372993834	6177,87698336010	6177,50398866750	6177,12271980829	6176,74028687109	6176,36211623955	6175,99135906549	6175,62860554864	6175,27194159304	6174,91733636317	6174,55930106664	6174,19171863581	6173,80871801283	6173,40546068966	6172,97872309945	6172,52719455679	6172,05146088630	6171,55369969833	6171,03716399187	6170,50556651456	6169,96249092239	6169,41094439305	6168,85313209739	6168,29048363308	6167,72390536120	6167,15418212382	6166,58241767108	6166,01039272479	6165,44073555790	6164,87683936325	6164,32251559339	6163,78143157065	6163,25643172405	6162,74887418431	6162,25812136996	6161,78130296524	6161,31342598190	6160,84784753535	6160,37706248515	6159,89370181363	6159,39159867584	6158,86676420279	6158,31812656683	6157,74792187228	6157,16167735876	6156,56778686119	6155,97673548880	6155,40007632350	6154,84929047920	6154,33467031807	6153,86435455803	6153,44361685078	6153,07447158979	6152,75561861404	6152,48270837530	6152,24887619426	6152,04547176785	6151,86289927472	6151,69148340685	6151,52228509522	6151,34780452628	6151,16252522882	6150,96326914765	6150,74934727626	6150,52250317476	6150,28665794084	6150,04747574996	6149,81177971862	6149,58685886451	6149,37971784263	6149,19633057789	6149,04096491776	6148,91564587250	6148,81981820871	6148,75025441044	6148,70123193512	6148,66497626446	6148,63233662596	6148,59363325930	6148,53959261378	6148,46227320750	6148,35588225696	6148,21739231140	6148,04688712100	6147,84759450521	6147,62559767725	6147,38925136477	6147,14836115507	6146,91321022490	6146,69353421958	6146,49755078439	6146,33114455617	6146,19729193874	6146,09578449614	6146,02327804377	6145,97365990410	6145,93869302585	6145,90886636325	6145,87435924193	6145,82601578514	6145,75622518548	6145,65961479947	6145,53348453929	6145,37794044067	6145,19571922997	6144,99173026342	6144,77237236197	6144,54470725875	6144,31558593719	6144,09082757741	6143,87454298524	6143,66867638867	6143,47281360655	6143,28427388752	6143,09847066906	6142,90949661083	6142,71086366630	6142,49631221282	6142,26059612586	6142,00015401563	6141,71359048179	6141,40191389547	6141,06850642651	6140,71883429485	6140,35993735236	6139,99976282290	6139,64642470390	6139,30747562338	6138,98927127071	6138,69649018837	6138,43184672870	6138,19600655117	6137,98768687222	6137,80390218208	6137,64030359909	6137,49155796263	6137,35172059734	6137,21457084723	6137,07389797800	6136,92374235446	6136,75860889045	6136,57367402446	6136,36500323867	6136,12978481311	6135,86657017734	6135,57549591984	6135,25845128103	6134,91915090651	6134,56307726770	6134,19727002483	6133,82995849452	6133,47005487742	6133,12654620643	6132,80783873097	6132,52111732043	6132,27178339328	6132,06302803734	6131,89558354579	6131,76767839355	6131,67519993207	6131,61204812586	6131,57064473163	6131,54254738667	6131,51910863373	6131,49211690457	6131,45436021635	6131,40006343939	6131,32516544005	6131,22742152237	6131,10633717201	6130,96295856441	6130,79956097713	6130,61928579822	6130,42577864368	6130,22287470188	6130,01436368521	6129,80384793657	6129,59468668965	6129,39000120619	6129,19270336979	6129,00550718821	6128,83088968179	6128,67098372915	6128,52740730613	6128,40105624840	6128,29190566054	6128,19887356303	6128,11979640940	6128,05154954743	6127,99031928792	6127,93200216975	6127,87267784767	6127,80908136145	6127,73899351641	6127,66147723485	6127,57691222722	6127,48681605147	6127,39347981666	6127,29948335139	6127,20717985161	6127,11824810794	6127,03339898977	6126,95229351846	6126,87368800090	6126,79577554941	6126,71665230823	6126,63480950905	6126,54954513347	6126,46120352565	6126,37118528181	6126,28171652352	6126,19541680454	6126,11474811587	6126,04145474721	6125,97610933534	6125,91786288149	6125,86445914666	6125,81252394287	6125,75808724205	6125,69725104476	6125,62688732096	6125,54524345945	6125,45234857254	6125,35014924870	6125,24235081089	6125,13399060041	6125,03081386813	6124,93855281033	6124,86222053027	6124,80552341263	6124,77047039821	6124,75722160292	6124,76417882829	6124,78828400297	6124,82546441456	6124,87114938405	6124,92078269483	6124,97026686639	6125,01629549406	6125,05655354574	6125,08978793328	6125,11576808285	6125,13516648043	6125,14939199108	6125,16040549389	6125,17054043979	6125,18234302209	6125,19844000465	6125,22143815856	6125,25385779912	6125,29810311435	6125,35647223001	6125,43120862897	6125,52459157375	6125,63905650688	6125,77732810273	6125,94254072675	6126,13831596930	6126,36876688044	6126,63840487951	6126,95193805569	6127,31396723107	6127,72860594545	6128,19906884703	6128,72728609302	6129,31360612922	6129,95664374402	6130,65331445620	6131,39907191769	6132,18833564929	6133,01506676393	6133,87342429530	6134,75841856148	6135,66647343843	6136,59581746688	6137,54664351927	6138,52100586735	6139,52245818393	6140,55547161179	6141,62470337665	6142,73420854914	6143,88669660472	6145,08292853971	6146,32133023177	6147,59786684149	6148,90618662070	6150,23800660130	6151,58368293822	6152,93288942239	6154,27532110445	6155,60134608090	6156,90254511763	6158,17210194713	6159,40503174014	6160,59825640879	6161,75054929282	6162,86237689471	6163,93566271738	6164,97349107335	6165,97976110450	6166,95879694157	6167,91492124444	6168,85200657992	6169,77303049208	6170,67967243343	6171,57199988987	6172,44829310767	6173,30505000759	6174,13719440208	6174,93848341751	6175,70207856309	6176,42121545410	6177,08988637442	6177,70344285785	6178,25903471340	6178,75582639136	6179,19496698939	6179,57932990482	6179,91307461701	6180,20110944070	6180,44854547032	6180,66022648556	6180,84039883685	6180,99255385816	6181,11943980919	6181,22320798917	6181,30563478723	6181,36835206556	6181,41302343307	6181,44142166878	6181,45538843161	6181,45668578644	6181,44677424034	6181,42656918115	6181,39623389798	6181,35506197343	6181,30148617314	6181,23322821564	6181,14757833244	6181,04177001036	6180,91339792432	6180,76081874986	6180,58347648385	6180,38210539203	6180,15878235424	6179,91682265119	6179,66053516382	6179,39487091879	6179,12501028474	6178,85593769333	6178,59204885450	6178,33682574626	6178,09260179700	6177,86042654540	6177,64002817768	6177,42986525375	6177,22725591036	6177,02857289680	6176,82949414121	6176,62529913982	6176,41119975648	6176,18268946171	6175,93588829584	6175,66785368686	6175,37682215122	6175,06234638371	6174,72529820456	6174,36772094330	6173,99253414194	6173,60311633125	6173,20281415051	6172,79444374662	6172,37985906968	6171,95965853331	6171,53308567484	6171,09815239874	6170,65197881519	6170,19130703748	6169,71311394346	6169,21522605488	6168,69683321832	6168,15880910698	6167,60377491813	6167,03588386963	6166,46035128535	6165,88279979091	6165,30852316867	6164,74178930928	6164,18529908343	6163,63989416113	6163,10456674052	6162,57677459492	6162,05301425220	6161,52956210851	6161,00326511740	6160,47225399498	6159,93646379753	6159,39787686983	6158,86044620484	6158,32970607735	6157,81212383323	6157,31428510585	6156,84202930765	6156,39965997463	6155,98934472594	6155,61079381139	6155,26126803939	6154,93592143475	6154,62843731345	6154,33187478891	6154,03961165923	6153,74625353772	6153,44838058094	6153,14502272092	6152,83779007111	6152,53063296296	6152,22925962829	6151,94029120003	6151,67027540140	6151,42470489938	6151,20718895795	6151,01890624320	6150,85842482240	6150,72191871983	6150,60374786652	6150,49731029215	6150,39603186721	6150,29433739158	6150,18845110679	6150,07690394267	6149,96067366578	6149,84294378912	6149,72852711379	6149,62304991843	6149,53202515017	6149,45995318195	6149,40957665487	6149,38138537982	6149,37342484860	6149,38141559159	6149,39914817681	6149,41908622766	6149,43309108039	6149,43317741892	6149,41221767119	6149,36453055300	6149,28631145159	6149,17588500161	6149,03377976001	6148,86263925402	6148,66699230007	6148,45290913973	6148,22757027280	6147,99877385118	6147,77440682115	6147,56190563594	6147,36773434676	6147,19691041507	6147,05261033729	6146,93588671178	6146,84552462219	6146,77805769765	6146,72795320252	6146,68796191935	6146,64961380261	6146,60382602558	6146,54157777196	6146,45459742350	6146,33600383040	6146,18084484888	6145,98648349924	6145,75279459005	6145,48215155234	6145,17920306198	6144,85045984317	6144,50373153499	6144,14746926403	6143,79007944528	6143,43927682273	6143,10153932411	6142,78171453354	6142,48280912401	6142,20597085326	6141,95065050486	6141,71491122792	6141,49583752290	6141,28998745773	6141,09383058224	6140,90412046137	6140,71816373555	6140,53396511612	6140,35024700039	6140,16636044498	6139,98211834145	6139,79758983418	6139,61289643207	6139,42804520302	6139,24282426296	6139,05677258385	6138,86922237268	6138,67940021926	6138,48656464638	6138,29015358994	6138,08991576402	6137,88600411910	6137,67901646439	6137,46997641173	6137,26025584602	6137,05144718547	6136,84519917923	6136,64303364424	6136,44616236642	6136,25532354807	6136,07065592209	6135,89162621621	6135,71702219248	6135,54501903952	6135,37332139177	6135,19937664762	6135,02064768354	6134,83492495515	6134,64065014505	6134,43721708724	6134,22521196651	6134,00655501679	6133,78451110284	6133,56354710804	6133,34902964096	6133,14677595415	6132,96249192073	6132,80115045189	6132,66637854123	6132,55992814639	6132,48130325784	6132,42760212176	6132,39361077971	6132,37215462278	6132,35468254744	6132,33202816215	6132,29526877178	6132,23658908657	6132,15005477244	6132,03221125472	6131,88244394990	6131,70306417485	6131,49911630004	6131,27793199693	6131,04848288163	6130,82060069477	6130,60414292683	6130,40818144398	6130,24028338941	6130,10593954703	6130,00817804174	6129,94738325246	6129,92132315587	6129,92537419614	6129,95292146437	6129,99590300844	6130,04545965611	6130,09264511963	6130,12914519704	6130,14795020497	6130,14392272245	6130,11420507328	6130,05841942111	6129,97862889917	6129,87905063048	6129,76553906543	6129,64488751254	6129,52402268622	6129,40918676869	6129,30520963461	6129,21496772792	6129,13910502427	6129,07605755529	6129,02238059708	6128,97333322671	6128,92363580853	6128,86828897197	6128,80333293046	6128,72643585937	6128,63722830322	6128,53734257526	6128,43016452105	6128,32035120257	6128,21320375692	6128,11400365282	6128,02741981647	6127,95707444303	6127,90532114119	6127,87324740401	6127,86087247220	6127,86747921044	6127,89200042967	6127,93337885833	6127,99083487018	6128,06400304308	6128,15293127746	6128,25796729634	6128,37958033010	6128,51817621387	6128,67396054202	6128,84688868149	6129,03671775777	6129,24315014919	6129,46603661878	6129,70559473314	6129,96259706118	6130,23849336877	6130,53544854504	6130,85629839745	6131,20444324295	6131,58370973237	6131,99821195313	6132,45223370775	6132,95013787336	6133,49629082298	6134,09497561643	6134,75026177400	6135,46580451109	6136,24456206383	6137,08844307615	6137,99792171500	6138,97168001790	6140,00634911235	6141,09641921891	6142,23437131886	6143,41105286073	6144,61628084893	6145,83961527478	6147,07121199570	6148,30264368933	6149,52757474125	6150,74219188457	6151,94532477156	6153,13823437146	6154,32409532672	6155,50724360399	6156,69229570323	6157,88326449012	6159,08279598496	6160,29163102838	6161,50835904476	6162,72948455924	6163,94977887401	6165,16284761476	6166,36181638783	6167,54002552199	6168,69163163306	6169,81203637492	6170,89809660370	6171,94810902450	6172,96159933397	6173,93897460156	6174,88111358039	6175,78897088809	6176,66325861464	6177,50424654865	6178,31169511940	6179,08490892684	6179,82287817821	6180,52446368004	6181,18857950363	6181,81433532242	6182,40111525827	6182,94858819262	6183,45666173721	6183,92540466819	6184,35496812960	6184,74553364913	6185,09730719921	6185,41056578923	6185,68574958203	6185,92358120065	6186,12518674729	6186,29219097895	6186,42676192675	6186,53158714898	6186,60977353936	6186,66467384643	6186,69965450419	6186,71782980430	6186,72179565346	6186,71340095800	6186,69359491253	6186,66238322130	6186,61891514370	6186,56170667629	6186,48898472671	6186,39911552982	6186,29106143800	6186,16479752711	6186,02161660953	6185,86426024549	6185,69683411564	6185,52449623951	6185,35294149344	6185,18773989760	6185,03361321392	6184,89374954308	6184,76925583825	6184,65883314386	6184,55873110920	6184,46300127291	6184,36402844090	6184,25328216884	6184,12220118768	6183,96310636290	6183,77003429182	6183,53939374016	6183,27036886635	6182,96502337169	6182,62809441547	6182,26650020770	6181,88861672192	6181,50340360709	6181,11947463243	6180,74421247092	6180,38302114946	6180,03879312389	6179,71164378604	6179,39893712328	6179,09559543066	6178,79465662011	6178,48801768086	6178,16728460262	6177,82463925868	6177,45363319896	6177,04982694187	6176,61121019210	6176,13836169620	6175,63433486489	6175,10428419085	6174,55487507134	6173,99354311051	6173,42768572294	6172,86387675294	6172,30719254623	6171,76072530428	6171,22533779586	6170,69968505433	6170,18049696487	6169,66308453988	6169,14200605252	6168,61181040438	6168,06776659155	6167,50649110473	6166,92639925971	6166,32792993933	6165,71352280079	6165,08735854196	6164,45490202683	6163,82231117350	6163,19578881614	6162,58095891274	6161,98234247712	6161,40299365399	6160,84433458749	6160,30620201306	6159,78709205554	6159,28456573204	6158,79575886816	6158,31792848980	6157,84896426679	6157,38779839071	6156,93465975140	6156,49113719634	6156,06004018162	6155,64507081877	6155,25034621987	6154,87983090408	6154,53675281377	6154,22308093095	6153,93913658700	6153,68339484971	6153,45250885840	6153,24156182118	6153,04452238964	6152,85485314105	6152,66620227035	6152,47309769197	6152,27156168579	6152,05957278148	6151,83731839658	6151,60720463774	6151,37361602125	6151,14244495492	6150,92043605738	6150,71441141383	6150,53045761519	6150,37316223312	6150,24498515145	6150,14583860779	6150,07292959366	6150,02089119203	6149,98219826320	6149,94783110952	6149,90812213916	6149,85369867267	6149,77642271768	6149,67022741865	6149,53176016880	6149,36076276296	6149,16014691890	6148,93575558599	6148,69583294028	6148,45025526221	6148,20959803354	6147,98412948485	6147,78282639805	6147,61250416716	6147,47714081802	6147,37745550268	6147,31077803400	6147,27121965183	6147,25012872433	6147,23679058195	6147,21930993963	6147,18559883227	6147,12438378786	6147,02614387049	6146,88389663188	6146,69376182021	6146,45525222891	6146,17126597813	6145,84778276964	6145,49329559303	6145,11803591648	6144,73307141440	6144,34936797256	6143,97691012925	6143,62396559394	6143,29656086773	6142,99820855956	6142,72989616826	6142,49031493597	6142,27627998459	6142,08327295539	6141,90602845080	6141,73908705348	6141,57725027281	6141,41589443312	6141,25112770898	6141,07980261039	6140,89942031209	6140,70797903229	6140,50382342562	6140,28554499741	6140,05196649229	6139,80221967866	6139,53590086508	6139,25326708664	6138,95542268234	6138,64444374130	6138,32339710607	6137,99622933526	6137,66752529830	6137,34216084924	6137,02489427350	6136,71995298966	6136,43067325209	6136,15924145526	6135,90656822877	6135,67230447298	6135,45498618260	6135,25227657030	6135,06126290047	6134,87876324337	6134,70160479961	6134,52684841253	6134,35194992586	6134,17486417643	6133,99410807577	6133,80880311566	6133,61871417187	6133,42429196039	6133,22671372387	6133,02790435076	6132,83051183319	6132,63780958849	6132,45350499971	6132,28144795139	6132,12525265035	6131,98786674644	6131,87113926435	6131,77544910796	6131,69945618365	6131,64002666876	6131,59236381419	6131,55034887609	6131,50706745879	6131,45546928035	6131,38908834387	6131,30273889239	6131,19310205303	6131,05912880221	6130,90220532346	6130,72605427287	6130,53637643997	6130,34026804699	6130,14547588869	6129,95957260872	6129,78914533004	6129,63909124520	6129,51210334087	6129,40840904815	6129,32579627256	6129,25992796049	6129,20491182612	6129,15406017620	6129,10074991596	6129,03927820898	6128,96560724528	6128,87790302554	6128,77679711847	6128,66533431592	6128,54860875057	6128,43313108905	6128,32600435720	6128,23401091582	6128,16272462694	6128,11575884915	6128,09424326419	6128,09659335714	6128,11859984694	6128,15382648868	6128,19426845710	6128,23119428365	6128,25607514345	6128,26149775548	6128,24196134110	6128,19447374643	6128,11888476377	6128,01792308555	6127,89693414538	6127,76334634711	6127,62592012391	6127,49385560982	6127,37584870173	6127,27919082394	6127,20900433275	6127,16769343808	6127,15467065955	6127,16639269475	6127,19670926574	6127,23749664374	6127,27951710949	6127,31341972180	6127,33077943493	6127,32506336312	6127,29241655803	6127,23217563273	6127,14704612863	6127,04291635502	6126,92832272844	6126,81362440501	6126,70998258279	6126,62826672315	6126,57802159159	6126,56662282814	6126,59872465754	6126,67606408631	6126,79763686048	6126,96020880401	6127,15907990142	6127,38898498603	6127,64499954466	6127,92332433239	6128,22184704686	6128,54041866855	6128,88082907979	6129,24651286659	6129,64205388165	6130,07258033603	6130,54314817769	6131,05820009987	6131,62116452375	6132,23422901119	6132,89829189429	6133,61306965196	6134,37731913849	6135,18912455192	6136,04619859343	6136,94615391999	6137,88671238035	6138,86583319720	6139,88175508295	6140,93295969080	6142,01807385462	6143,13573525020	6144,28445005099	6145,46247140464	6146,66772361950	6147,89778861340	6149,14995904068	6150,42134833197	6151,70903445238	6153,01020469399	6154,32226589396	6155,64288931167	6156,96997139652	6158,30150857014	6159,63540260283	6160,96922950605	6162,30001572121	6163,62406826125	6164,93689920809	6166,23327020324	6167,50736180771	6168,75304996634	6169,96425212600	6171,13529315970	6172,26123878316	6173,33815188793	6174,36324308788	6175,33490705278	6176,25265648320	6177,11698177339	6177,92917347921	6178,69114516199	6179,40528629670	6180,07436074429	6180,70144923041	6181,28991848298	6181,84338903794	6182,36567087931	6182,86064180891	6183,33205649913	6183,78329171482	6184,21705147072	6184,63507114573	6185,03786866326	6185,42459172303	6185,79300204756	6186,13962146227	6186,46004254315	6186,74938187699	6187,00283069514	6187,21623978351	6187,38666644331	6187,51281282749	6187,59529739416	6187,63672283067	6187,64153130610	6187,61566689792	6187,56609073179	6187,50021249731	6187,42530960473	6187,34800133297	6187,27383109640	6187,20698862439	6187,15017991044	6187,10463106345	6187,07019672075	6187,04553682716	6187,02832755399	6187,01548103768	6187,00336104081	6186,98799356201	6186,96527927688	6186,93121625076	6186,88213627227	6186,81494797944	6186,72736774657	6186,61810883226	6186,48699407835	6186,33495989759	6186,16393007111	6185,97655574398	6185,77584000974	6185,56468756074	6185,34543770226	6185,11944879005	6184,88680133051	6184,64617481881	6184,39493107173	6184,12940735817	6183,84539047373	6183,53871320894	6183,20589245755	6182,84471750225	6182,45470000392	6182,03731387100	6181,59598121010	6181,13579583742	6180,66301313654	6180,18436890338	6179,70631530705	6179,23427551504	6178,77201786869	6178,32123567824	6177,88139163534	6177,44985016203	6177,02228163046	6176,59328476886	6176,15714298848	6175,70861117896	6175,24362460033	6174,75983185536	6174,25687848275	6173,73640331250	6173,20175137328	6172,65744860451	6172,10851837132	6171,55974215198	6171,01497310938	6170,47660068800	6169,94523897525	6169,41967592020	6168,89708077434	6168,37342985584	6167,84408172524	6167,30441617561	6166,75044885679	6166,17934413995	6165,58976999882	6164,98206568395	6164,35822068147	6163,72168730023	6163,07706607311	6162,42971171739	6161,78530819966	6161,14945630212	6160,52730837770	6159,92327500313	6159,34081870553	6158,78234174428	6158,24916816604	6157,74161451314	6157,25913795219	6156,80054475245	6156,36423616925	6155,94846382492	6155,55156411188	6155,17214246347	6154,80918440956	6154,46208090237	6154,13056896380	6153,81460281125	6153,51418243986	6153,22917368774	6152,95915453836	6152,70331657781	6152,46043925448	6152,22894015936	6152,00698989948	6151,79266825107	6151,58413149545	6151,37976034082	6151,17826338258	6150,97872111441	6150,78056765899	6150,58351897996	6150,38746508758	6150,19234823967	6149,99804902111	6149,80429814662	6149,61062531437	6149,41634923530	6149,22060675055	6149,02241487899	6148,82075807026	6148,61469340543	6148,40346788435	6148,18664291602	6147,96422055324	6147,73676336217	6147,50549540057	6147,27236672496	6147,04005989147	6146,81191601653	6146,59176183558	6146,38362882176	6146,19137061605	6146,01820417518	6145,86622016186	6145,73592517591	6145,62588815941	6145,53256208612	6145,45033788211	6145,37186080292	6145,28860323544	6145,19164747957	6145,07259439161	6144,92448599735	6144,74261828886	6144,52512788218	6144,27326310188	6143,99129278150	6143,68605788896	6143,36622332605	6143,04133093854	6142,72078237235	6142,41288726498	6142,12409745732	6141,85851442350	6141,61771121884	6141,40086032646	6141,20511375493	6141,02614935199	6140,85878264129	6140,69754801694	6140,53717445419	6140,37291338254	6140,20071246923	6140,01726100370	6139,81995405016	6139,60682997110	6139,37652907302	6139,12830290581	6138,86207940955	6138,57856494763	6138,27934620087	6137,96694713920	6137,64480048578	6137,31710806338	6136,98858654954	6136,66411935738	6136,34835622919	6136,04531523257	6135,75804455175	6135,48839335977	6135,23692388273	6135,00297394470	6134,78485518056	6134,58015119396	6134,38606595499	6134,19976798809	6134,01868086777	6133,84068380189	6133,66420469664	6133,48820825904	6133,31209956369	6133,13557598365	6132,95846562890	6132,78058812417	6132,60166478595	6132,42129220693	6132,23897870146	6132,05422982311	6131,86665957882	6131,67609951918	6131,48267902531	6131,28685627598	6131,08938921387	6130,89124752065	6130,69347819652	6130,49704697975	6130,30268400315	6130,11076368316	6129,92124536898	6129,73369292649	6129,54737912935	6129,36146612521	6129,17523853233	6128,98835336259	6128,80106332806	6128,61436905933	6128,43006238151	6128,25063693966	6128,07906266901	6127,91844406480	6127,77160506563	6127,64066130017	6127,52664947636	6127,42928106062	6127,34687231182	6127,27647677087	6127,21421331358	6127,15574841939	6127,09686171462	6127,03400502128	6126,96476138023	6126,88812356072	6126,80454005754	6126,71571609264	6126,62420085197	6126,53283205782	6126,44413727528	6126,35980222145	6126,28030705633	6126,20480324905	6126,13126091020	6126,05686712031	6125,97860886994	6125,89393854250	6125,80140215997	6125,70111424386	6125,59498747203	6125,48666584954	6125,38115948839	6125,28422854723	6125,20160497912	6125,13816687624	6125,09718769127	6125,07977108724	6125,08455434979	6125,10772427914	6125,14334565502	6125,18396029513	6125,22138012531	6125,24757469696	6125,25554443143	6125,24007576866	6125,19829183314	6125,12993934395	6125,03738555358	6124,92533385910	6124,80029926755	6124,66991141261	6124,54213037704	6124,42446731477	6124,32329721712	6124,24333594466	6124,18732998887	6124,15597857263	6124,14807759442	6124,16084771259	6124,19038831182	6124,23218798003	6124,28162178628	6124,33437570129	6124,38675685052	6124,43587147748	6124,47967631795	6124,51692936965	6124,54707942564	6124,57013828487	6124,58657506163	6124,59725998510	6124,60346833607	6124,60693724983	6124,60995257595	6124,61543273478	6124,62697333108	6124,64882059433	6124,68575259339	6124,74286261791	6124,82525645858	6124,93769169456	6125,08419992001	6125,26774015478	6125,48993238057	6125,75091404318	6126,04935015765	6126,38261077365	6126,74710997252	6127,13878056096	6127,55364055046	6127,98839352450	6128,44099681631	6128,91113016015	6129,40050356579	6129,91295637731	6130,45431899278	6131,03203314651	6131,65455395429	6132,33058436151	6133,06821684730	6133,87407457174	6134,75255128985	6135,70524408472	6136,73065483921	6137,82420697272	6138,97858681013	6140,18437886476	6141,43092674259	6142,70732155382	6144,00340196296	6145,31064704402	6146,62285556020	6147,93653146438	6149,25093153379	6150,56777195784	6151,89063090633	6153,22411879762	6154,57291362576	6155,94077315351	6157,32963806266	6158,73893022401	6160,16512894814	6161,60167732904	6163,03923375559	6164,46624457975	6165,86977754015	6167,23652628018	6168,55387756827	6169,81092658251	6170,99933234379	6172,11392421908	6173,15299929943	6174,11828615731	6175,01458874307	6175,84916009843	6176,63088435276	6177,36936333120	6178,07400900227	6178,75323499199	6179,41382151267	6180,06050174151	6180,69578811041	6181,32002834124	6181,93165703437	6182,52759181531	6183,10371473257	6183,65537959113	6184,17789275075	6184,66692638384	6185,11883687902	6185,53087498078	6185,90128701493	6186,22931741474	6186,51513133191	6186,75968206001	6186,96455093241	6187,13178692201	6187,26376924078	6187,36310913244	6187,43259764091	6187,47519577765	6187,49405385687	6187,49253948205	6187,47425011793	6187,44298717147	6187,40267408369	6187,35721034967	6187,31026517305	6187,26502670217	6187,22393343662	6187,18842162997	6187,15872508357	6187,13376109480	6187,11112872560	6187,08723390716	6187,05754161251	6187,01694012592	6186,96018812480	6186,88240358586	6186,77954590136	6186,64884011531	6186,48909541500	6186,30087887171	6186,08651919732	6185,84993263629	6185,59628222114	6185,33150035775	6185,06172088016	6184,79267830924	6184,52913747925	6184,27441502574	6184,03004534590	6183,79562834168	6183,56887618598	6183,34585383004	6183,12138568252	6182,88958155784	6182,64442104019	6182,38032871686	6182,09267440156	6181,77814264673	6181,43493358176	6181,06278031445	6180,66279366618	6180,23716908215	6179,78880927691	6179,32092627100	6178,83668596179	6178,33894703772	6177,83012562648	6177,31219108546	6176,78677158177	6176,25532580480	6175,71932397051	6175,18038025891	6174,64029058464	6174,10095197673	6173,56416824239	6173,03137494745	6172,50333890086	6171,97989841950	6171,45980816515	6170,94073661112	6170,41943821631	6169,89209116359	6169,35476104039	6168,80392689071	6168,23699311992	6167,65271107335	6167,05144741166	6166,43525988243	6165,80777017697	6165,17385298874	6164,53918527781	6163,90971649660	6163,29112729645	6162,68834096531	6162,10514004865	6161,54392290932	6161,00561462958	6160,48972694772	6159,99454564296	6159,51741276172	6159,05506593245	6158,60399721811	6158,16079818354	6157,72246448109	6157,28664079622	6156,85179435131	6156,41731169210	6155,98351887702	6155,55162940614	6155,12362738695	6154,70209580541	6154,29000169489	6153,89045178722	6153,50643404394	6153,14056221859	6152,79484197369	6152,47047761359	6152,16773772380	6151,88589554629	6151,62325553346	6151,37727117048	6151,14475105288	6150,92214089971	6150,70585959563	6150,49265873735	6150,27996891234	6150,06619334872	6149,85091154243	6149,63496229931	6149,42038696577	6149,21022847044	6149,00819863847	6148,81824315769	6148,64404843568	6148,48854524721	6148,35346866364	6148,23903100432	6148,14375407305	6148,06448945624	6147,99663302141	6147,93451480238	6147,87192166530	6147,80269111633	6147,72130347535	6147,62339849350	6147,50615193321	6147,36846654128	6147,21095750081	6147,03574092710	6146,84606083734	6146,64581110048	6146,43902098448	6146,22937442485	6146,01982419248	6145,81234462036	6145,60784369195	6145,40623107616	6145,20661708542	6145,00760175479	6144,80760519043	6144,60519032917	6144,39933612649	6144,18963074197	6143,97636789025	6143,76054273633	6143,54375475523	6143,32803294050	6143,11560357593	6142,90862307177	6142,70889903627	6142,51762272481	6142,33513587492	6142,16075475226	6141,99267346561	6141,82796627941	6141,66270366989	6141,49218844902	6141,31130633597	6141,11497074129	6140,89862605162	6140,65875988773	6140,39336547559	6140,10229297714	6139,78743508624	6139,45270777052	6139,10381044200	6138,74777813803	6138,39236730292	6138,04534175530	6137,71374205515	6137,40322664141	6137,11756556540	6136,85834828034	6136,62493860237	6136,41467692491	6136,22329707246	6136,04549776310	6135,87559056289	6135,70813994520	6135,53851711846	6135,36330611371	6135,18052497900	6134,98965252753	6134,79147746159	6134,58780801945	6134,38109398629	6134,17401792826	6133,96910929714	6133,76842525596	6133,57332807075	6133,38437330679	6133,20130821761	6133,02316737847	6132,84844377423	6132,67530843371	6132,50184997792	6132,32630649959	6132,14726536323	6131,96381126906	6131,77560886533	6131,58291301025	6131,38650715891	6131,18757788961	6130,98754078098	6130,78783907954	6130,58974112454	6130,39416453861	6130,20155402477	6130,01183474548	6129,82445465171	6129,63851734959	6129,45299338027	6129,26698397860	6129,07999966096	6128,89220860078	6128,70460856961	6128,51908242128	6128,33831079598	6128,16553575448	6128,00419293002	6127,85745389862	6127,72774060594	6127,61628577686	6127,52281418482	6127,44540810250	6127,38059699487	6127,32367953907	6127,26925013963	6127,21186803713	6127,14678069354	6127,07059917770	6126,98182467109	6126,88114238704	6126,77142992538	6126,65746683598	6126,54537484505	6126,44185720708	6126,35333500760	6126,28509359896	6126,24055162512	6126,22074872102	6126,22411870796	6126,24657745436	6126,28191399509	6126,32243556115	6126,35978672041	6126,38584342010	6126,39357624930	6126,37778386857	6126,33561586255	6126,26683156028	6126,17377404914	6126,06107263291	6125,93511826842	6125,80338136207	6125,67365680671	6125,55332551776	6125,44871460486	6125,36462081088	6125,30403650640	6125,26808802951	6125,25616686521	6125,26620948313	6125,29506537975	6125,33888748803	6125,39348529819	6125,45459740007	6125,51806341885	6125,57990079160	6125,63631432578	6125,68368131344	6125,71855898269	6125,73775332386	6125,73847040945	6125,71854704903	6125,67673227073	6125,61297035896	6125,52862482498	6125,42658369408	6125,31120029236	6125,18804812059	6125,06349905681	6124,94416539587	6124,83627232594	6124,74504351777	6124,67418554041	6124,62554608341	6124,59899805799	6124,59257014408	6124,60280914706	6124,62532604222	6124,65545089055	6124,68890588961	6124,72240300878	6124,75408334008	6124,78373793440	6124,81278129685	6124,84398452146	6124,88101032712	6124,92782213645	6124,98805958411	6125,06448035262	6125,15856145010	6125,27033220043	6125,39847846620	6125,54071694276	6125,69439521774	6125,85723403835	6126,02809926578	6126,20767776661	6126,39893748238	6126,60727784296	6126,84031999961	6127,10734127526	6127,41841636192	6127,78337931431	6128,21075570795	6128,70682599041	6129,27496543834	6129,91536458702	6130,62517299175	6131,39903932678	6132,22995492947	6133,11025838857	6134,03263515876	6134,99095303142	6135,98081021507	6136,99973059685	6138,04700881989	6139,12327231602	6140,22987529734	6141,36826147192	6142,53942426397	6143,74355864794	6144,97994633889	6146,24705866324	6147,54281212079	6148,86488100586	6150,21096521192	6151,57892948684	6152,96676761085	6154,37239208889	6155,79329609806	6157,22616929703	6158,66656508598	6160,10871072656	6161,54552513014	6162,96886837300	6164,37000129297	6165,74019266015	6167,07138347581	6168,35680766135	6169,59147652132	6170,77245811690	6171,89891676900	6172,97191577681	6173,99402150533	6174,96877370376	6175,90010156477	6176,79176632200	6177,64690027935	6178,46769224610	6179,25524467248	6180,00960261001	6180,72993239778	6181,41481093417	6182,06257567047	6182,67168144038	6183,24101284475	6183,77010969290	6184,25927700848	6184,70956874888	6185,12265343053	6185,50058766229	6185,84553752007	6186,15949555615	6186,44404168128	6186,70018896833	6186,92834161185	6187,12837398648	6187,29981995493	6187,44214356835	6187,55504904656	6187,63878147980	6187,69437082570	6187,72377990678	6187,72993058009	6187,71659877166	6187,68818624975	6187,64939273581	6187,60482457705	6187,55858458896	6187,51389111108	6187,47277245827	6187,43587580109	6187,40241749374	6187,37028591971	6187,33628955049	6187,29652416848	6187,24681653458	6187,18318971852	6187,10229008156	6187,00171898273	6186,88022401551	6186,73772393674	6186,57516599117	6186,39424048042	6186,19700094310	6185,98545501656	6185,76119756017	6185,52515204641	6185,27746865837	6185,01760020736	6184,74454411230	6184,45720589621	6184,15481314227	6183,83729424346	6183,50553747146	6183,16146401937	6182,80788153333	6182,44812676987	6182,08554950748	6181,72292588717	6181,36191007134	6181,00263330326	6180,64353789439	6180,28149356084	6179,91219202130	6179,53076265479	6179,13250783191	6178,71363041041	6178,27182360008	6177,80661604630	6177,31940859456	6176,81319549867	6176,29202092029	6175,76027019334	6175,22192522676	6174,67991912294	6174,13570588230	6173,58912095194	6173,03855514205	6172,48140804732	6171,91473779575	6171,33599027635	6170,74367836878	6170,13789148863	6169,52054533836	6168,89532527776	6168,26732652430	6167,64244246392	6167,02659167019	6166,42489959869	6165,84095936631	6165,27628684108	6164,73005988675	6164,19919333685	6163,67875494020	6163,16267897123	6162,64468969172	6162,11931238420	6161,58283032304	6161,03404535146	6160,47471914735	6159,90961070235	6159,34607909275	6158,79328263256	6158,26106718522	6157,75868806664	6157,29354262733	6156,87009775986	6156,48917565125	6156,14771413382	6155,83905152506	6155,55370993416	6155,28057753803	6155,00833100456	6154,72690355414	6154,42879768951	6154,11006508099	6153,77082519122	6153,41526059563	6153,05109979868	6152,68866645165	6152,33962757808	6152,01560604052	6151,72683110957	6151,48098642883	6151,28238085744	6151,13152073674	6151,02510925137	6150,95644689611	6150,91616283233	6150,89317473750	6150,87575727284	6150,85259716725	6150,81372497007	6150,75123713169	6150,65975357311	6150,53659106423	6150,38166717186	6150,19717917905	6149,98712384565	6149,75673489687	6149,51191480376	6149,25872642485	6149,00299060461	6148,75001135422	6148,50442506674	6148,27014879242	6148,05038873354	6147,84766622191	6147,66382493478	6147,49999820963	6147,35653533342	6147,23290573890	6147,12761518043	6147,03817427897	6146,96115539631	6146,89235915869	6146,82709002666	6146,76051581382	6146,68806449169	6146,60579808468	6146,51070153860	6146,40083536760	6146,27532316726	6146,13417475505	6145,97797704587	6145,80751147573	6145,62337322084	6145,42566986332	6145,21386445253	6144,98680201576	6144,74292410329	6144,48063939620	6144,19878687090	6143,89710778638	6143,57663796997	6143,23994358173	6142,89114945633	6142,53574413606	6142,18018298774	6141,83134329708	6141,49590716406	6141,17975595872	6140,88745350998	6140,62187636725	6140,38402284290	6140,17300372638	6139,98619216227	6139,81949266500	6139,66768204650	6139,52477815076	6139,38440338689	6139,24012512976	6139,08576949791	6138,91571475500	6138,72517309053	6138,51046442767	6138,26927496807	6138,00087991372	6137,70629852284	6137,38834441979	6137,05153763355	6136,70185786157	6136,34633926933	6135,99253202104	6135,64787974338	6135,31908020676	6135,01150467130	6134,72874751063	6134,47236215002	6134,24181452773	6134,03465540916	6133,84688305105	6133,67344297448	6133,50879603361	6133,34748190299	6133,18461271449	6133,01624882833	6132,83963183762	6132,65327416522	6132,45692537381	6132,25144897311	6132,03864820151	6131,82107512478	6131,60184643697	6131,38447491834	6131,17271153000	6130,97038326179	6130,78120868103	6130,60857759895	6130,45529245359	6130,32328430344	6130,21333203973	6130,12482559675	6130,05561923130	6130,00201737045	6129,95892287989	6129,92015748945	6129,87893962620	6129,82848005808	6129,76263471860	6129,67654047728	6129,56715587440	6129,43363583377	6129,27748635377	6129,10246996928	6128,91426215996	6128,71988911756	6128,52700461329	6128,34308476847	6128,17463170440	6128,02647869245	6127,90128005663	6127,79924945317	6127,71818223197	6127,65376439971	6127,60013604963	6127,55064516789	6127,49870254518	6127,43863359520	6127,36642060961	6127,28024026268	6127,18072514552	6127,07091206430	6126,95587950822	6126,84211678588	6126,73670230651	6126,64639344822	6126,57674194420	6126,53134524628	6126,51132659115	6126,51510720546	6126,53849745998	6126,57509484431	6126,61694042659	6126,65535633239	6126,68186784030	6126,68910654656	6126,67159576245	6126,62633459403	6126,55312071907	6126,45458078823	6126,33590843188	6126,20433988567	6126,06842339454	6125,93715845754	6125,81909294443	6125,72146922977	6125,64950464695	6125,60587745754	6125,59046858300	6125,60038358276	6125,63025126464	6125,67276760527	6125,71942907665	6125,76138050234	6125,79029117279	6125,79917037138	6125,78304005667	6125,73939762908	6125,66842399084	6125,57291920985	6125,45797715616	6125,33043831659	6125,19818345332	6125,06934710054	6124,95153709523	6124,85114348766	6124,77280758352	6124,71910110245	6124,69043915835	6124,68522241800	6124,70017714396	6124,73084044550	6124,77212477489	6124,81889213351	6124,86647470253	6124,91109323412	6124,95014474666	6124,98235323041	6125,00779736598	6125,02784435893	6125,04502665581	6125,06289773486	6125,08589510659	6125,11922522326	6125,16876923432	6125,24099388586	6125,34284157402	6125,48157006808	6125,66451691642	6125,89877572916	6126,19078956388	6126,54588742860	6126,96780961184	6127,45828223315	6128,01670780229	6128,64003463847	6129,32285329050	6130,05774385673	6130,83586711188	6131,64775858902	6132,48425295000	6133,33744094629	6134,20154728506	6135,07361772667	6135,95391881333	6136,84598265665	6137,75626906045	6138,69346323490	6139,66747387608	6140,68823756851	6141,76446571111	6142,90248467248	6144,10531532030	6145,37211335504	6146,69804885311	6148,07464711802	6149,49055111513	6150,93260772194	6152,38713491519	6153,84120214313	6155,28375564873	6156,70644471632	6158,10405010105	6159,47447523899	6160,81832480496	6162,13815345631	6163,43751079608	6164,71993012363	6165,98800598794	6167,24268104754	6168,48282224391	6169,70511804517	6170,90428109570	6172,07350128070	6173,20506787130	6174,29106815561	6175,32407319381	6176,29773621680	6177,20725133318	6178,04964463183	6178,82389197116	6179,53087470401	6180,17319529327	6180,75488015103	6181,28099919925	6181,75723285987	6182,18941887033	6182,58311359878	6182,94320427317	6183,27360792161	6183,57708809848	6183,85521065300	6184,10844510566	6184,33640017962	6184,53816334184	6184,71269810071	6184,85924245788	6184,97764968950	6185,06861951448	6185,13378300597	6185,17562606813	6185,19726057092	6185,20207550161	6185,19331918011	6185,17367492294	6185,14489490600	6185,10755003976	6185,06093836128	6185,00317280494	6184,93144413632	6184,84242974533	6184,73279741633	6184,59973825933	6184,44145696206	6184,25755141194	6184,04922708990	6183,81931259539	6183,57206825986	6183,31280645772	6183,04736629010	6182,78150364472	6182,52026798800	6182,26743856049	6182,02508511342	6181,79330327356	6181,57015425007	6181,35181558286	6181,13292672450	6180,90709291639	6180,66749502230	6180,40754307411	6180,12150800902	6179,80506957798	6179,45572821158	6179,07304364097	6178,65868158338	6178,21626965424	6177,75108251197	6177,26959189143	6176,77892795208	6176,28630332283	6175,79845030006	6175,32111563545	6174,85864773681	6174,41369984520	6173,98706185153	6173,57762447091	6173,18247326033	6172,79710613626	6172,41576535110	6172,03187153997	6171,63854184296	6171,22916548588	6170,79799911341	6170,34073253959	6169,85496639900	6169,34053985916	6168,79965210723	6168,23673752918	6167,65808117107	6167,07119565229	6166,48401832221	6165,90402158919	6165,33735300214	6164,78812884975	6164,25799225639	6163,74601399129	6163,24896531581	6162,76193443980	6162,27920111760	6161,79523785298	6161,30568018190	6160,80810862753	6160,30251275392	6159,79135965616	6159,27925666066	6158,77226888022	6158,27701324942	6157,79968991189	6157,34522149152	6156,91664870060	6156,51488097144	6156,13883284720	6155,78590383306	6155,45269544639	6155,13581674870	6154,83261692636	6154,54170283515	6154,26314669071	6153,99835443457	6153,74963520128	6153,51957236128	6153,31033459867	6153,12307393712	6152,95753536502	6152,81195500423	6152,68326114226	6152,56752839808	6152,46058338202	6152,35863119983	6152,25877173056	6152,15930224699	6152,05975208786	6151,96065466876	6151,86311903170	6151,76830513870	6151,67692545440	6151,58888658700	6151,50315133807	6151,41785117194	6151,33062303816	6151,23909483341	6151,14141108941	6151,03668137883	6150,92524991402	6150,80872199166	6150,68973306835	6150,57149863795	6150,45722692516	6150,34950308553	6150,24975835611	6150,15792032502	6150,07230549636	6149,98977021954	6149,90608999268	6149,81649893072	6149,71629750162	6149,60143088202	6149,46895215043	6149,31731034517	6149,14643715499	6148,95764074736	6148,75334457553	6148,53672827674	6148,31133475949	6148,08070264308	6147,84806892509	6147,61616712049	6147,38712562049	6147,16245367028	6146,94309093530	6146,72949225163	6146,52172132367	6146,31953405867	6146,12244146799	6145,92975117837	6145,74059367246	6145,55394333202	6145,36864497061	6145,18345431105	6144,99709675280	6144,80834393900	6144,61610316287	6144,41951136571	6144,21802379191	6144,01148727518	6143,80018929322	6143,58487584289	6143,36673338485	6143,14733229562	6142,92853139051	6142,71234527987	6142,50077882144	6142,29563594327	6142,09831371408	6141,90959659870	6141,72946992968	6141,55697500242	6141,39012983187	6141,22593835187	6141,06050572874	6140,88926804733	6140,70733128294	6140,50989853254	6140,29274818898	6140,05271195422	6139,78809328739	6139,49896659719	6139,18730668347	6138,85691651999	6138,51314753961	6138,16243649313	6137,81171182750	6137,46774511945	6137,13653483908	6136,82280771878	6136,52970675908	6136,25870651493	6136,00976019636	6135,78164531025	6135,57244165522	6135,38005345514	6135,20268055199	6135,03915354441	6134,88907315706	6134,75273061635	6134,63082683636	6134,52404625883	6134,43256923076	6134,35561973291	6134,29114085977	6134,23566968862	6134,18444996904	6134,13178137156	6134,07156468054	6133,99796974792	6133,90613223634	6133,79277900366	6133,65669080881	6133,49893297588	6133,32281610871	6133,13358522410	6132,93787178584	6132,74297442526	6132,55605679429	6132,38336231451	6132,22954419235	6132,09719503850	6131,98663529235	6131,89598631605	6131,82151653175	6131,75821212278	6131,70049261095	6131,64297065140	6131,58114816862	6131,51194930993	6131,43401425823	6131,34771397241	6131,25488941418	6131,15836311142	6131,06130867043	6130,96658834829	6130,87617520567	6130,79076281981	6130,70963371620	6130,63081266191	6130,55148046005	6130,46857684826	6130,37948606440	6130,28268204608	6130,17821517460	6130,06794808521	6129,95548970186	6129,84582684723	6129,74470273066	6129,65783288608	6129,59007514860	6129,54467737209	6129,52271448196	6129,52279791845	6129,54110071514	6129,57169684890	6129,60717074989	6129,63941779956	6129,66053353883	6129,66368046328	6129,64382699230	6129,59827195248	6129,52689677378	6129,43212265064	6129,31858675524	6129,19258574649	6129,06136222279	6128,93232715281	6128,81231659464	6128,70697355208	6128,62032659436	6128,55460842107	6128,51032373636	6128,48654130058	6128,48135477486	6128,49243538607	6128,51758972193	6128,55523953086	6128,60475654581	6128,66661131398	6128,74232640906	6128,83425599596	6128,94524037395	6129,07820172507	6129,23575343478	6129,41988965926	6129,63180586150	6129,87187791408	6130,13980103262	6130,43486440900	6130,75631668366	6131,10376415836	6131,47753951068	6131,87898393821	6132,31059893933	6132,77604292682	6133,27996937737	6133,82772385822	6134,42493410291	6135,07703836737	6135,78880184801	6136,56386942889	6137,40439675741	6138,31079238226	6139,28159316525	6140,31348474427	6141,40146913328	6142,53917245636	6143,71927654363	6144,93404772118	6146,17592420584	6147,43811088985	6148,71511929233	6150,00318450964	6151,30049369257	6152,60717433524	6153,92501569953	6155,25693061461	6156,60620298855	6157,97560256435	6159,36647640110	6160,77794076902	6162,20629391571	6163,64474836444	6165,08354299114	6166,51044516127	6167,91159924582	6169,27262857760	6170,57986142227	6171,82153356196	6172,98882294733	6174,07659429644	6175,08376926247	6176,01328474799	6176,87165131063	6177,66816892763	6178,41389334499	6179,12046922588	6179,79895476991	6180,45875687716	6181,10677842709	6181,74685298398	6182,37951065710	6183,00208511189	6183,60913860020	6184,19315180737	6184,74540066117	6185,25692530653	6185,71948919400	6186,12642984213	6186,47331724803	6186,75835958989	6186,98252586719	6187,14938759391	6187,26471240903	6187,33586766579	6187,37110882190	6187,37883425167	6187,36688493174	6187,34195570992	6187,30916697388	6187,27182440425	6187,23137296257	6187,18753165201	6187,13857949250	6187,08175146040	6187,01369622181	6186,93094540692	6186,83034683806	6186,70942127587	6186,56661332490	6186,40142111866	6186,21440471947	6186,00708782397	6185,78177922237	6185,54134766750	6185,28898523105	6185,02798974172	6184,76158750882	6184,49280519685	6184,22438700512	6183,95874291350	6183,69790794116	6183,44349246191	6183,19660967850	6182,95777705847	6182,72680139258	6182,50266901829	6182,28347056423	6182,06639098734	6181,84778968631	6181,62338267217	6181,38852128619	6181,13854306369	6180,86915389636	6180,57679030351	6180,25890909509	6179,91416011686	6179,54241525608	6179,14465063874	6178,72270462387	6178,27895675492	6177,81598753949	6177,33628239966	6176,84203405543	6176,33507712696	6175,81696040205	6175,28913139957	6174,75318086688	6174,21107768133	6173,66532167683	6173,11895487500	6172,57539884013	6172,03812258190	6171,51018446014	6170,99372488184	6170,48950697127	6169,99660484803	6169,51232196504	6169,03238714960	6168,55142904653	6168,06367871830	6167,56380462454	6167,04775305221	6166,51345702411	6165,96129076187	6165,39418336130	6164,81735850583	6164,23772758320	6163,66302082230	6163,10078499394	6162,55739925201	6162,03725899310	6161,54225161611	6161,07160225635	6160,62210965461	6160,18873187197	6159,76542839482	6159,34612769812	6158,92567316241	6158,50060733891	6158,06968307679	6157,63403478872	6157,19699662672	6156,76360801268	6156,33989256026	6155,93202721271	6155,54553017988	6155,18458784863	6154,85161429216	6154,54709709399	6154,26973658740	6154,01683969876	6153,78489136723	6153,57020156403	6153,36951767068	6153,18050126045	6153,00199339258	6152,83402923425	6152,67760524128	6152,53424342836	6152,40543080309	6152,29203248411	6152,19378124352	6152,10893380751	6152,03415755969	6151,96467491942	6151,89465260678	6151,81778558896	6151,72799635299	6151,62015332343	6151,49070970055	6151,33817544892	6151,16335832594	6150,96934093001	6150,76119520871	6150,54546905150	6150,32950736389	6150,12068917818	6149,92567088739	6149,74972288617	6149,59623337368	6149,46643066397	6149,35934694861	6149,27201570119	6149,19986577931	6149,13725160750	6149,07804383777	6149,01620073155	6148,94624791109	6148,86361216160	6148,76478103523	6148,64729009848	6148,50956885573	6148,35069962620	6148,17015667499	6147,96759307157	6147,74272971107	6147,49537683129	6147,22558757999	6146,93391164248	6146,62169095511	6146,29132459466	6145,94642951775	6145,59183856061	6145,23340455210	6144,87761444802	6144,53105336400	6144,19978836276	6143,88876014504	6143,60127401267	6143,33866908278	6143,10021900950	6142,88328293751	6142,68368793940	6142,49628993157	6142,31563441882	6142,13662516346	6141,95510961270	6141,76830393356	6141,57500504990	6141,37556800673	6141,17165957467	6140,96582874186	6140,76095793918	6140,55967300732	6140,36379382519	6140,17390118634	6139,98908000110	6139,80687616448	6139,62347708477	6139,43409701036	6139,23352125893	6139,01674156728	6138,77960103076	6138,51936375787	6138,23513255137	6137,92805722260	6137,60130437070	6137,25979276209	6136,90973178378	6136,55802841090	6136,21164596277	6135,87700246466	6135,55948679256	6135,26314856775	6134,99058686385	6134,74302868293	6134,52055699482	6134,32242559834	6134,14738827255	6133,99397432330	6133,86066051091	6133,74591657432	6133,64813231428	6133,56546192692	6133,49564017761	6133,43583124855	6133,38256366140	6133,33178552031	6133,27904787947	6133,21979620858	6133,14972674269	6133,06515080451	6132,96330860528	6132,84258446270	6132,70259509747	6132,54414703676	6132,36908269162	6132,18005233547	6131,98025746177	6131,77320856281	6131,56252843988	6131,35181408179	6131,14455066989	6130,94405542179	6130,75342092585	6130,57542958668	6130,41242250793	6130,26612472639	6130,13744937325	6130,02632045162	6129,93156244040	6129,85090168920	6129,78110911994	6129,71828861481	6129,65828564934	6129,59716266843	6129,53166789490	6129,45961780859	6129,38012295572	6129,29361127914	6129,20163872437	6129,10651677779	6129,01082280022	6128,91688382583	6128,82633218442	6128,73981947275	6128,65694561829	6128,57641744208	6128,49640447489	6128,41501828078	6128,33081394617	6128,24320487093	6128,15269674847	6128,06088128724	6127,97017826388	6127,88336646125	6127,80298949500	6127,73075218623	6127,66703076234	6127,61060384928	6127,55867372987	6127,50719557854	6127,45147598040	6127,38695149252	6127,31002262874	6127,21880485431	6127,11366832316	6126,99747018661	6126,87543154642	6126,75466714316	6126,64343034052	6126,55018026793	6126,48260555519	6126,44674628241	6126,44634211612	6126,48250262697	6126,55375039343	6126,65643518567	6126,78546548452	6126,93525881266	6127,10078081142	6127,27852893542	6127,46732207352	6127,66878184284	6127,88743174652	6128,13039166388	6128,40670050148	6128,72635177562	6129,09916814732	6129,53366544582	6130,03606061378	6130,60956025313	6131,25402916569	6131,96608654154	6132,73961854834	6133,56663839598	6134,43837665063	6135,34645238559	6136,28396412844	6137,24635015755	6138,23189924618	6139,24184135599	6140,28000649016	6141,35210063501	6142,46470152434	6143,62411575136	6144,83525671678	6146,10069761673	6147,42002648610	6148,78958590957	6150,20262540760	6151,64983775797	6153,12019954301	6154,60199779220	6156,08390355932	6157,55595192760	6159,01030568348	6160,44171337083	6161,84761613196	6163,22790511401	6164,58437586151	6165,91996268190	6167,23786063240	6168,54065329046	6169,82956011462	6171,10389878690	6172,36082787382	6173,59539744073	6174,80089504581	6175,96943731634	6177,09272790922	6178,16288446226	6179,17323170988	6180,11896511646	6180,99760768325	6181,80920955276	6182,55627245944	6183,24341515523	6183,87682752070	6184,46358612408	6185,01091921310	6185,52551255548	6186,01293890786	6186,47727462942	6186,92093994395	6187,34476844282	6187,74828088791	6188,13011234250	6188,48852353731	6188,82191935791	6189,12930006308	6189,41058336035	6189,66675549537	6189,89983395614	6190,11264991850	6190,30848210068	6190,49059274669	6190,66172919638	6190,82365977633	6190,97681008306	6191,12005533282	6191,25070723674	6191,36471145015	6191,45704628958	6191,52228782240	6191,55528354423	6191,55185952418	6191,50947657147	6191,42775136331	6191,30876922770	6191,15713577193	6190,97974283361	6190,78525716468	6190,58337387926	6190,38390675938	6190,19581009569	6190,02623881179	6189,87975345213	6189,75776398865	6189,65828260565	6189,57602324772	6189,50284834243	6189,42852490153	6189,34171745471	6189,23111793498	6189,08659587459	6188,90024807891	6188,66723590360	6188,38631946985	6188,06002935411	6187,69445412891	6187,29866253798	6186,88381770070	6186,46207336927	6186,04536534181	6185,64422214538	6185,26671686872	6184,91766685949	6184,59816163635	6184,30546470811	6184,03329576346	6183,77246004638	6183,51175586290	6183,23906294263	6182,94249693977	6182,61151069987	6182,23783155210	6181,81614466641	6181,34446273188	6180,82415797647	6180,25966937552	6179,65793137468	6179,02759685246	6178,37814377629	6177,71896089279	6177,05850315114	6176,40359402974	6175,75893210665	6175,12683604476	6174,50723840678	6173,89791647521	6173,29492884349	6172,69321066612	6172,08726852427	6171,47190831369	6170,84292693165	6170,19770133688	6169,53561700606	6168,85829164394	6168,16956838869	6167,47527433734	6166,78276323196	6166,10028349527	6165,43623215917	6164,79836922717	6164,19307358683	6163,62471939827	6163,09524069030	6162,60393272412	6162,14751370883	6161,72044263086	6161,31546155895	6160,92430694333	6160,53851678842	6160,15025103484	6159,75304198087	6159,34239998665	6158,91621587013	6158,47492329199	6158,02140947461	6157,56068809740	6157,09937163047	6156,64499956223	6156,20529225346	6155,78740631348	6155,39726581574	6155,03903441373	6154,71477735807	6154,42434124836	6154,16545545190	6153,93403524696	6153,72464567812	6153,53106928353	6153,34691205979	6153,16618118981	6152,98377508544	6152,79584006917	6152,59996650617	6152,39521774862	6152,18200501995	6151,96183777972	6151,73699028880	6151,51013009631	6151,28395303730	6151,06086296516	6150,84272436290	6150,63070401194	6150,42520588317	6150,22589291270	6150,03178141371	6149,84138904527	6149,65291543891	6149,46443528305	6149,27408617168	6149,08023709076	6148,88162737856	6148,67746981975	6148,46751480665	6148,25207495009	6148,03201103072	6147,80868083525	6147,58385251734	6147,35958412194	6147,13807134569	6146,92146694829	6146,71167778684	6146,51014926241	6146,31765176593	6146,13408883317	6145,95835113470	6145,78824280839	6145,62050557632	6145,45096040612	6145,27477564156	6145,08685497205	6144,88231990715	6144,65704221528	6144,40816546365	6144,13454494551	6143,83703500305	6143,51856395147	6143,18395956932	6142,83952036483	6142,49236534655	6142,14963199602	6141,81762207139	6141,50101183513	6141,20224314448	6140,92119314128	6140,65518476510	6140,39935275830	6140,14732734193	6139,89214863592	6139,62728731414	6139,34762744989	6139,05026969502	6138,73503691458	6138,40460652138	6138,06424729916	6137,72119492413	6137,38375091520	6137,06022690991	6136,75787502803	6136,48194382208	6136,23497921302	6136,01645477681	6135,82277145793	6135,64761968411	6135,48265317188	6135,31838862844	6135,14522265102	6134,95444813527	6134,73915738998	6134,49493638108	6134,22028143690	6133,91670293227	6133,58851610151	6133,24235327297	6132,88646076563	6132,52986434371	6132,18149737672	6131,84938485042	6131,53996466807	6131,25760713730	6131,00436710751	6130,77997455198	6130,58204235011	6130,40644816986	6130,24783335554	6130,10015692158	6129,95724684960	6129,81330202612	6129,66331331781	6129,50338795211	6129,33097436590	6129,14499283890	6128,94587984972	6128,73555204118	6128,51729108784	6128,29554644756	6128,07565171792	6127,86345405837	6127,66486541187	6127,48535789636	6127,32944101679	6127,20017156843	6127,09875445438	6127,02429117624	6126,97372118390	6126,94198038548	6126,92237375936	6126,90712956587	6126,88807622163	6126,85736428022	6126,80814870872	6126,73515231895	6126,63504901493	6126,50663241783	6126,35076670270	6126,17014662268	6125,96891748987	6125,75221941492	6125,52572151981	6125,29520166447	6125,06620826838	6124,84381755475	6124,63247725740	6124,43591142726	6124,25705395015	6124,09798199383	6123,95983351686	6123,84271155498	6123,74559712686	6123,66630687458	6123,60153660773	6123,54702548782	6123,49785808989	6123,44889608415	6123,39530290606	6123,33309961020	6123,25967389504	6123,17416124304	6123,07762894208	6122,97301920673	6122,86484271323	6122,75865261321	6122,66036468291	6122,57551537882	6122,50856158430	6122,46232164261	6122,43763760793	6122,43330683800	6122,44629234186	6122,47218185809	6122,50583149572	6122,54210582175	6122,57661560102	6122,60635789749	6122,63017973221	6122,64901301886	6122,66586095213	6122,68554977336	6122,71429034136	6122,75911725351	6122,82728645663	6122,92571372182	6123,06052590338	6123,23677603494	6123,45834506210	6123,72802165143	6124,04772205538	6124,41878939269	6124,84229993465	6125,31930534115	6125,85095428912	6126,43846224932	6127,08292996095	6127,78504380849	6128,54471886772	6129,36076259277	6130,23064034414	6131,15041196357	6132,11488288448	6133,11797790846	6134,15330674584	6135,21485441459	6136,29770276853	6137,39867629410	6138,51680812357	6139,65354082054	6140,81260860726	6141,99958924903	6143,22115935636	6144,48413013786	6145,79437526350	6147,15578299713	6148,56936758667	6150,03265923007	6151,53945984144	6153,08000784712	6154,64154540043	6156,20923227816	6157,76730851493	6159,30037774438	6160,79466893380	6162,23913741577	6163,62628618006	6164,95262225483	6166,21870573936	6167,42879476433	6168,59013265665	6169,71195928823	6170,80435395908	6171,87703067795	6172,93820804800	6173,99366576066	6175,04607935066	6176,09469646224	6177,13538405723	6178,16103966717	6179,16232385310	6180,12863823466	6181,04924644825	6181,91441693017	6182,71645928753	6183,45053268420	6184,11512650923	6184,71215003793	6185,24661571323	6185,72595437119	6186,15905260188	6186,55514416860	6186,92271148571	6187,26855432873	6187,59715942830	6187,91045874145	6188,20800250326	6188,48750548346	6188,74566280985	6188,97908652186	6189,18519433454	6189,36289213170	6189,51293021773	6189,63787372044	6189,74169892137	6189,82909665372	6189,90461842338	6189,97183036382	6190,03263887870	6190,08691989615	6190,13252687606	6190,16568167692	6190,18168051619	6190,17578821097	6190,14415889256	6190,08461700293	6189,99715916607	6189,88408995254	6189,74977214599	6189,60004161903	6189,44139499995	6189,28009424275	6189,12133998226	6188,96864491916	6188,82349481231	6188,68532764912	6188,55180306955	6188,41928562413	6188,28343572766	6188,13979562144	6187,98427362780	6187,81346323279	6187,62477566116	6187,41640604774	6187,18718545518	6186,93638793417	6186,66356138508	6186,36843484704	6186,05092788885	6185,71125678966	6185,35010428087	6184,96880068633	6184,56945791282	6184,15500459248	6183,72908869311	6183,29583897943	6182,85950372608	6182,42400905183	6181,99249613978	6181,56690390974	6181,14766056968	6180,73353464031	6180,32167560689	6179,90784937258	6179,48684775960	6179,05302802948	6178,60092086380	6178,12583563823	6177,62439116941	6177,09490829542	6176,53761652682	6175,95464862606	6175,34982179325	6174,72822925448	6174,09568849587	6173,45810948395	6172,82085594227	6172,18817403157	6171,56275555362	6170,94548795352	6170,33542256632	6169,72996792193	6169,12528906679	6168,51686960699	6167,90017336545	6167,27132967408	6166,62776212786	6165,96868575472	6165,29541142958	6164,61141734117	6163,92217300749	6163,23472892426	6162,55711147808	6161,89758538484	6161,26386201755	6160,66233951751	6160,09745839504	6159,57124446609	6159,08309076933	6158,62980399574	6158,20591208594	6157,80420139286	6157,41642734716	6157,03412454532	6156,64943246207	6156,25585246690	6155,84886033499	6155,42631478059	6154,98862464802	6154,53866268676	6154,08143958478	6153,62357559423	6153,17262648829	6152,73633402911	6152,32187739089	6151,93520043038	6151,58048039533	6151,25978749273	6150,97296342188	6150,71772291256	6150,48995828224	6150,28420583751	6150,09421703952	6149,91356851641	6149,73624414297	6149,55712940834	6149,37237201584	6149,17958106729	6148,97785763411	6148,76766919632	6148,55059681914	6148,32899521856	6148,10561115398	6147,88320495856	6147,66421437140	6147,45049062709	6147,24312569236	6147,04237826692	6146,84769601961	6146,65782335317	6146,47097807389	6146,28507651592	6146,09798449843	6145,90777052596	6145,71293760854	6145,51261099768	6145,30666127238	6145,09574595891	6144,88125858197	6144,66518187035	6144,44985159471	6144,23764857555	6144,03064765980	6143,83026236439	6143,63693057260	6143,44988830482	6143,26707374610	6143,08519181080	6142,89995112475	6142,70646224286	6142,49976118819	6142,27539978202	6142,03002774949	6141,76188478121	6141,47112594967	6141,15992162601	6140,83230162454	6140,49374888090	6140,15058509853	6139,80922336496	6139,47538512773	6139,15338710234	6138,84559601524	6138,55212660766	6138,27082458357	6137,99753657199	6137,72662998238	6137,45169293741	6137,16632306052	6136,86490645608	6136,54329491485	6136,19930799009	6135,83301313482	6135,44676674982	6135,04502711261	6134,63397306822	6134,22097785846	6133,81399492750	6133,42091275646	6133,04893054900	6132,70399821494	6132,39035481572	6132,11019110075	6131,86345469906	6131,64781064242	6131,45876411173	6131,28994525892	6131,13354661234	6130,98089167693	6130,82309969366	6130,65179791426	6130,45982161207	6130,24183596517	6129,99481505532	6129,71832271668	6129,41455769843	6129,08814995307	6128,74572286995	6128,39526408395	6128,04537100805	6127,70445286620	6127,37997627950	6127,07783547571	6126,80191171920	6126,55386190281	6126,33314689814	6126,13728039885	6125,96225285996	6125,80306639859	6125,65430765559	6125,51068748686	6125,36748806405	6125,22087707967	6125,06807179102	6124,90735875972	6124,73799482118	6124,56002838723	6124,37408616524	6124,18116857675	6123,98248856255	6123,77937497663	6123,57324586381	6123,36564121854	6123,15829177030	6122,95319189180	6122,75264217842	6122,55923113885	6122,37573548011	6122,20493349967	6122,04934406186	6121,91092170504	6121,79075328700	6121,68880994917	6121,60380748465	6121,53321722049	6121,47344893013	6121,42019975995	6121,36893312992	6121,31542457397	6121,25629311504	6121,18943154652	6121,11425930139	6121,03174694451	6120,94419815458	6120,85481715971	6120,76712916444	6120,68435048512	6120,60881758376	6120,54157662148	6120,48220805611	6120,42891864829	6120,37888371928	6120,32877512541	6120,27537461004	6120,21615536775	6120,14972057192	6120,07601549642	6119,99627441344	6119,91271588166	6119,82804984601	6119,74489711606	6119,66523880567	6119,59000684662	6119,51889815801	6119,45045032773	6119,38236479714	6119,31201489986	6119,23704024604	6119,15591270661	6119,06836543955	6118,97560331709	6118,88025503391	6118,78607563718	6118,69745381488	6118,61881257528	6118,55400908914	6118,50583714890	6118,47571539393	6118,46361083990	6118,46820708921	6118,48728727187	6118,51826984052	6118,55881541868	6118,60741696993	6118,66389294646	6118,72972096231	6118,80817381596	6118,90424599221	6119,02438335745	6119,17604904230	6119,36717319617	6119,60554317030	6119,89819411788	6120,25085853553	6120,66752734324	6121,15016501619	6121,69860740855	6122,31065393461	6122,98234689902	6123,70841173118	6124,48281478754	6125,29938241945	6126,15241804194	6127,03725418000	6127,95068409831	6128,89123163881	6129,85923618031	6130,85674938275	6131,88725873805	6132,95526776824	6134,06577298794	6135,22368362451	6136,43323237849	6137,69742502900	6139,01757377780	6140,39295366154	6141,82061272101	6143,29535478309	6144,80989924461	6146,35520641890	6147,92094156340	6149,49603754315	6151,06930694919	6152,63005076501	6154,16861311157	6155,67684000477	6157,14841304118	6158,57904397783	6159,96653022254	6161,31068161038	6162,61313414143	6163,87706703570	6165,10683756297	6166,30754642802	6167,48454752659	6168,64292094821	6169,78693691116	6170,91954906971	6172,04196540004	6173,15335017653	6174,25070812089	6175,32898942874	6176,38143174892	6177,40012450626	6178,37674689741	6179,30339982176	6180,17343055796	6180,98214236294	6181,72729177798	6182,40930328302	6183,03116985063	6183,59805242938	6184,11663397623	6184,59431733657	6185,03837572228	6185,45516706611	6185,84950949258	6186,22428777570	6186,58032528504	6186,91651878534	6187,23020035853	6187,51766597827	6187,77479614983	6187,99769076043	6188,18324650674	6188,32961866661	6188,43652690013	6188,50538460860	6188,53925087002	6188,54262126023	6188,52108760413	6188,48090605904	6188,42851763264	6188,37006551094	6188,31095006519	6188,25545603833	6188,20647819540	6188,16536260129	6188,13187141158	6188,10427012724	6188,07952794753	6188,05361429966	6188,02186796429	6187,97940969991	6187,92156531380	6187,84426429750	6187,74438002660	6187,61998154500	6187,47047418247	6187,29661627060	6187,10041109867	6186,88488566752	6186,65377926510	6186,41117400275	6186,16110512915	6185,90719054395	6185,65231631080	6185,39840841946	6185,14631124995	6184,89578115360	6184,64559054104	6184,39372527244	6184,13764743752	6183,87458813958	6183,60183174477	6183,31695490066	6183,01799060285	6182,70349916625	6182,37254285800	6182,02457714577	6181,65928640108	6181,27640266875	6180,87555031827	6180,45615553979	6180,01744768172	6179,55856093732	6179,07872295549	6178,57749567166	6178,05501742960	6177,51218816937	6176,95074362536	6176,37318062696	6175,78252183486	6175,18194035669	6174,57429670420	6173,96166587415	6173,34494506567	6172,72362883044	6172,09581740309	6171,45848801683	6170,80801365852	6170,14086665376	6169,45440435235	6168,74760911961	6168,02165082598	6167,28015956875	6166,52913761414	6165,77649630401	6165,03126630667	6164,30258687230	6163,59862109253	6162,92556174658	6162,28688262545	6161,68295463507	6161,11109040450	6160,56601488238	6160,04069354458	6159,52739522434	6159,01883202622	6158,50920953986	6157,99503744067	6157,47558992618	6156,95296007943	6156,43171288957	6155,91819869633	6155,41963397879	6154,94308388892	6154,49448804402	6154,07785829714	6153,69474771470	6153,34404905698	6153,02213503674	6152,72330798782	6152,44048896677	6152,16604992055	6151,89267975434	6151,61417647419	6151,32607199428	6151,02602130164	6150,71392006863	6150,39175039399	6150,06318869304	6149,73303851776	6149,40657059144	6149,08886011097	6148,78420652864	6148,49570450785	6148,22500920613	6147,97230849546	6147,73648398332	6147,51541656961	6147,30637479160	6147,10641786858	6146,91275064453	6146,72298292317	6146,53526762811	6146,34831641700	6146,16131334002	6145,97376313898	6145,78531851037	6145,59562947155	6145,40424886452	6145,21061327862	6145,01410130572	6144,81415426756	6144,61043121289	6144,40296211906	6144,19226187802	6143,97937278700	6143,76581398529	6143,55343099478	6143,34415520904	6143,13969956618	6142,94123039983	6142,74906438093	6142,56244172329	6142,37942131638	6142,19693008083	6142,01097875634	6141,81703193106	6141,61049486205	6141,38725760643	6141,14422227505	6140,87973520347	6140,59385440495	6140,28840365035	6139,96679538066	6139,63364069268	6139,29419967237	6138,95375286628	6138,61698915394	6138,28750339820	6137,96747871163	6137,65759592631	6137,35717262489	6137,06449339663	6136,77725970143	6136,49306852995	6136,20982797539	6135,92603528980	6135,64087550154	6135,35413942021	6135,06600011497	6134,77671793187	6134,48635892823	6134,19460683144	6133,90072513545	6133,60368874256	6133,30246178042	6132,99635943371	6132,68540576314	6132,37059287804	6132,05396175208	6131,73845899171	6131,42757025797	6131,12478016896	6130,83294989498	6130,55372825070	6130,28711420771	6130,03126728306	6129,78262087864	6129,53630005925	6129,28678965773	6129,02875164194	6128,75786138694	6128,47152645197	6128,16936972784	6127,85339777176	6127,52782728857	6127,19859830324	6126,87265160763	6126,55708227898	6126,25829534629	6125,98128279555	6125,72911561522	6125,50270606963	6125,30085122068	6125,12052662656	6124,95736583962	6124,80624140397	6124,66185837755	6124,51928104105	6124,37433414554	6124,22384707226	6124,06573746932	6123,89895563233	6123,72332865278	6123,53935227954	6123,34797825782	6123,15043678017	6122,94811981080	6122,74253423233	6122,53531694769	6122,32828991923	6122,12352374648	6121,92337514615	6121,73046715223	6121,54759068308	6121,37752111016	6121,22276149979	6121,08524239889	6120,96602304485	6120,86504739000	6120,78100775230	6120,71135802591	6120,65249787500	6120,60012188311	6120,54969768761	6120,49701021382	6120,43869082409	6120,37264502760	6120,29830273637	6120,21664041158	6120,12996125850	6120,04146169294	6119,95465183283	6119,87272689361	6119,79799876500	6119,73148937145	6119,67276016554	6119,62000973083	6119,57042168632	6119,52069742431	6119,46767216358	6119,40889584417	6119,34306638312	6119,27023105682	6119,19171703544	6119,10980557336	6119,02721546560	6118,94649990395	6118,86947907860	6118,79682509586	6118,72788711401	6118,66079862863	6118,59285448065	6118,52109284538	6118,44297707452	6118,35705124608	6118,26344527195	6118,16412969085	6118,06286205910	6117,96481840364	6117,87595541792	6117,80219323195	6117,74853783195	6117,71827260071	6117,71233933396	6117,72900283807	6117,76385453241	6117,81016540666	6117,85955355896	6117,90289209739	6117,93135389631	6117,93747342235	6117,91610375878	6117,86515867380	6117,78605338152	6117,68379075067	6117,56667854102	6117,44570368821	6117,33362740125	6117,24389575441	6117,18948102687	6117,18177680798	6117,22966379726	6117,33884387135	6117,51150957975	6117,74637837833	6118,03908018770	6118,38284820603	6118,76943094749	6119,19012190507	6119,63679428030	6120,10283235290	6120,58386699560	6121,07824783525	6121,58721500985	6122,11476558087	6122,66724007402	6123,25268077821	6123,88003357863	6124,55827806783	6125,29557561215	6126,09852132661	6126,97157334377	6127,91671200296	6128,93335448770	6130,01852011684	6131,16721199299	6132,37295631777	6133,62842511064	6134,92606370637	6136,25865179678	6137,61974437246	6139,00396318132	6140,40713528447	6141,82629755337	6143,25959999833	6144,70614430841	6146,16578751722	6147,63892769264	6149,12627411845	6150,62859383088	6152,14642335980	6153,67974040962	6155,22760369214	6156,78778678792	6158,35644916162	6159,92789946305	6161,49450891657	6163,04682346919	6164,57390233115	6166,06388023653	6167,50471624687	6168,88505969557	6170,19514024363	6171,42757859444	6172,57801907403	6173,64550400337	6174,63253924894	6175,54483590856	6176,39074982940	6177,18047405865	6177,92506578221	6178,63540635023	6179,32119939876	6179,99010781726	6180,64711629013	6181,29418387456	6181,93022239582	6182,55140339917	6183,15176143764	6183,72402768803	6184,26059911128	6184,75452888293	6185,20041756020	6185,59509401732	6185,93800085510	6186,23123823256	6186,47926761215	6186,68832552035	6186,86563913987	6187,01856316766	6187,15376588303	6187,27658004132	6187,39060307519	6187,49758669528	6187,59760638208	6187,68945543642	6187,77117433335	6187,84060977621	6187,89590124598	6187,93581437776	6187,95987528097	6187,96830088778	6187,96175976868	6187,94102853921	6187,90662590839	6187,85850726183	6187,79588811780	6187,71723824814	6187,62045507514	6187,50319137123	6187,36328422549	6187,19921426264	6187,01051867778	6186,79808888571	6186,56430141021	6186,31295541334	6186,04901759590	6185,77820080216	6185,50642307013	6185,23920689800	6184,98108339696	6184,73506333492	6184,50222837459	6184,28148309044	6184,06949360365	6183,86082345588	6183,64826255157	6183,42333093189	6183,17692576531	6182,90006727143	6182,58468776802	6182,22439866484	6181,81516457579	6181,35581359885	6180,84831987762	6180,29780983362	6179,71226689564	6179,10193970672	6178,47849272717	6177,85397165376	6177,23968420543	6176,64511477741	6176,07699551862	6175,53864471692	6175,02965651270	6174,54598677841	6174,08043331989	6173,62346044257	6173,16427487380	6172,69202806747	6172,19700372582	6171,67165152895	6171,11134849299	6170,51480524499	6169,88408060669	6169,22421753054	6168,54255961658	6167,84784398262	6167,14918873673	6166,45509955817	6165,77261017523	6165,10664825168	6164,45968545373	6163,83169331572	6163,22039011563	6162,62173274282	6162,03058457444	6161,44147714984	6160,84937995743	6160,25039788260	6159,64232818421	6159,02502641196	6158,40055151425	6157,77308256571	6157,14862114370	6156,53451264466	6155,93883531341	6155,36971645411	6154,83464061699	6154,33981426114	6153,88964548074	6153,48638613098	6153,12996779480	6152,81804376212	6152,54622842449	6152,30850553681	6152,09776006097	6151,90637684470	6151,72684455479	6151,55230552495	6151,37700100428	6151,19657539517	6151,00822053888	6150,81065970721	6150,60398842918	6150,38940363533	6150,16886236619	6149,94471564700	6149,71936193809	6149,49495829848	6149,27321700528	6149,05530217657	6148,84182652916	6148,63293448123	6148,42844609181	6148,22802832898	6148,03135700150	6147,83823494520	6147,64863963411	6147,46268550151	6147,28050145405	6147,10204031464	6146,92685180764	6146,75386166116	6146,58120418485	6146,40615276917	6146,22518177983	6146,03417531431	6145,82877563768	6145,60484025181	6145,35895539716	6145,08893907948	6144,79426134816	6144,47631502895	6144,13848620149	6143,78599838626	6143,42553411321	6143,06466777648	6142,71116977728	6142,37225996774	6142,05389579829	6141,76017660520	6141,49293120710	6141,25153389623	6141,03296736355	6140,83212368373	6140,64230950299	6140,45590160993	6140,26508578377	6140,06260588199	6139,84245137223	6139,60041912951	6139,33449816340	6139,04504272702	6138,73471866818	6138,40822853127	6138,07184130546	6137,73277120575	6137,39846478661	6137,07586547855	6136,77072811414	6136,48705250974	6136,22669467070	6135,98919734264	6135,77185976691	6135,57004157002	6135,37767020678	6135,18789808793	6134,99383727695	6134,78928890301	6134,56938296192	6134,33105272679	6134,07328617369	6133,79712305094	6133,50539774705	6133,20226123858	6132,89254578627	6132,58105924054	6132,27190791271	6131,96794534507	6131,67042824630	6131,37893186977	6131,09153893533	6130,80527434616	6130,51671894519	6130,22270587832	6129,92098811420	6129,61076844404	6129,29300402337	6128,97043319107	6128,64731705952	6128,32893455828	6128,02090922112	6127,72847222419	6127,45577470648	6127,20535219435	6126,97781732275	6126,77181910684	6126,58426463523	6126,41075953547	6126,24619331869	6126,08537914124	6125,92365632071	6125,75737696280	6125,58422175558	6125,40331934175	6125,21517330202	6125,02142599411	6124,82450608936	6124,62721525217	6124,43230938344	6124,24212290968	6124,05827321915	6123,88146913213	6123,71143444329	6123,54694650800	6123,38598108328	6123,22594792396	6123,06399628806	6122,89736481267	6122,72374583140	6122,54163033607	6122,35059724154	6122,15151059295	6121,94659214973	6121,73934538800	6121,53432072507	6121,33673005471	6121,15193972128	6120,98489198536	6120,83952221467	6120,71824868717	6120,62161089749	6120,54811897117	6120,49435167917	6120,45530641780	6120,42496628012	6120,39701327561	6120,36558942528	6120,32599448460	6120,27521389723	6120,21219371825	6120,13781776057	6120,05459013590	6119,96607557984	6119,87619168210	6119,78847359180	6119,70543768609	6119,62815447963	6119,55610517462	6119,48734684250	6119,41895699721	6119,34767893115	6119,27065345443	6119,18610691880	6119,09387226747	6118,99564786167	6118,89494277492	6118,79670922071	6118,70671378043	6118,63074068449	6118,57374616777	6118,53908947427	6118,52795336857	6118,53903802408	6118,56857217444	6118,61064092112	6118,65778715988	6118,70180889794	6118,73465185960	6118,74928784657	6118,74047448421	6118,70530967100	6118,64352135695	6118,55746645124	6118,45184755457	6118,33318872098	6118,20913790112	6118,08768121096	6117,97636088627	6117,88158418990	6117,80809547114	6117,75866016923	6117,73398101120	6117,73283686333	6117,75240772061	6117,78872882841	6117,83720563561	6117,89312047310	6117,95207115939	6118,01029914183	6118,06488697326	6118,11382789086	6118,15599004973	6118,19101140515	6118,21916652290	6118,24124354167	6118,25845948031	6118,27242761922	6118,28517493210	6118,29919360683	6118,31750108010	6118,34367924715	6118,38186599187	6118,43668023605	6118,51307380421	6118,61611747056	6118,75074229508	6118,92146851411	6119,13216085899	6119,38584975929	6119,68465167532	6120,02980895926	6120,42185144435	6120,86086087269	6121,34679877045	6121,87984245925	6122,46066629246	6123,09060850778	6123,77167895569	6124,50638776983	6125,29740602927	6126,14710138886	6127,05701877735	6128,02739337419	6129,05678641385	6130,14192231333	6131,27777908877	6132,45794650881	6133,67522358588	6134,92238578550	6136,19301974379	6137,48230506076	6138,78762229146	6140,10888417663	6141,44852126853	6142,81109897437	6144,20259456718	6145,62941282366	6147,09726030900	6148,61002429389	6150,16880804535	6151,77125790858	6153,41128093845	6155,07920009759	6156,76233501859	6158,44593889080	6160,11437452935	6161,75238172644	6163,34627768729	6164,88494395647	6166,36048497595	6167,76849061933	6169,10789065237	6170,38044463792	6171,58995797222	6172,74134676679	6173,83968722419	6174,88937830082	6175,89352212133	6176,85358939457	6177,76939294869	6178,63934793853	6179,46095849924	6180,23144279837	6180,94839496758	6181,61038433006	6182,21740825506	6182,77114132633	6183,27495548582	6183,73371831091	6184,15340512052	6184,54058186535	6184,90182779459	6185,24316910036	6185,56958772934	6185,88465499322	6186,19032003733	6186,48686173329	6186,77299237312	6187,04608552621	6187,30249062326	6187,53789413178	6187,74769115364	6187,92734022714	6188,07268543305	6188,18024053084	6188,24743697730	6188,27283944071	6188,25632847074	6188,19924170831	6188,10445530832	6187,97637978725	6187,82084277123	6187,64483734732	6187,45612917087	6187,26273620094	6187,07231811786	6186,89153332182	6186,72543523655	6186,57698297224	6186,44673274693	6186,33275664615	6186,23080726134	6186,13471496086	6186,03697414064	6185,92945060677	6185,80412794908	6185,65380831650	6185,47269234640	6185,25678219515	6185,00407728604	6184,71456036114	6184,38999744923	6184,03359578164	6183,64957594350	6183,24271750601	6182,81793145533	6182,37989975300	6181,93280525152	6181,48015738581	6181,02470384041	6180,56840820152	6180,11246961601	6179,65736247352	6179,20288070404	6178,74818032562	6178,29182307213	6177,83183122069	6177,36576761877	6176,89085460211	6176,40414100467	6175,90271855691	6175,38397903750	6174,84589335009	6174,28728505189	6173,70806533099	6173,10939512582	6172,49374360262	6171,86482063127	6171,22737377331	6170,58685654483	6169,94899256784	6169,31927723131	6168,70247180133	6168,10215181184	6167,52037002962	6166,95748358441	6166,41217579305	6165,88167808494	6165,36216971839	6164,84930679622	6164,33881164048	6163,82704247913	6163,31146399658	6162,79095216986	6162,26589042712	6161,73804503089	6161,21024081019	6160,68588856218	6160,16843775919	6159,66083916210	6159,16510000877	6158,68200013901	6158,21101313413	6157,75044611245	6157,29777983519	6156,85016188340	6156,40498381424	6155,96046107228	6155,51613313819	6155,07321056153	6154,63471358771	6154,20537174428	6153,79128229915	6153,39935504802	6153,03659841931	6152,70932435769	6152,42236398899	6152,17839033782	6151,97743699202	6151,81668258615	6151,69054189397	6151,59106832447	6151,50863409976	6151,43281845398	6151,35340589867	6151,26138019548	6151,14979783863	6151,01443816919	6150,85415405884	6150,67088373210	6150,46932565860	6150,25631889019	6150,04000542539	6149,82887494349	6149,63080297952	6149,45219058827	6149,29729784643	6149,16783774170	6149,06286470146	6148,97895731392	6148,91066174497	6148,85113452981	6148,79290361575	6148,72865658542	6148,65196568014	6148,55787027044	6148,44325739861	6148,30700755929	6148,14990277502	6147,97432355276	6147,78378670816	6147,58239401045	6147,37426977328	6147,16306286709	6146,95157565014	6146,74156100248	6146,53370222806	6146,32776305114	6146,12287037977	6145,91787449079	6145,71172221739	6145,50377951041	6145,29404978857	6145,08325189427	6144,87274349175	6144,66429928088	6144,45977540932	6144,26070925749	6144,06791520393	6143,88114060168	6143,69884136381	6143,51812352840	6143,33487715930	6143,14410406332	6142,94041396425	6142,71863837886	6142,47449104955	6142,20519163430	6141,90996781717	6141,59036110660	6141,25028265935	6140,89579507240	6140,53463032790	6140,17548821717	6139,82718882321	6139,49777295834	6139,19365312142	6138,91891349924	6138,67484142224	6138,45974664233	6138,26909214139	6138,09592493101	6137,93156168766	6137,76645596764	6137,59115425386	6137,39723917762	6137,17816066145	6136,92986893957	6136,65118582982	6136,34387973243	6136,01244239892	6135,66359791443	6135,30560288120	6134,94741817895	6134,59784443398	6134,26471416375	6133,95422355707	6133,67046744505	6133,41521482533	6133,18793277745	6132,98603761430	6132,80532741399	6132,64053277563	6132,48591468818	6132,33584023611	6132,18527736812	6132,03016669703	6131,86764808757	6131,69613933221	6131,51528075989	6131,32577139288	6131,12912864600	6130,92740501038	6130,72289291117	6130,51784455795	6130,31422858930	6130,11354063116	6129,91668083177	6129,72390762182	6129,53487258651	6129,34873562504	6129,16435211821	6128,98051492642	6128,79622477199	6128,61095461574	6128,42486900049	6128,23895983709	6128,05506696910	6127,87576526131	6127,70411880067	6127,54332460665	6127,39628944825	6127,26519984639	6127,15115327374	6127,05391528668	6126,97185209333	6126,90206244765	6126,84070057010	6126,78344850357	6126,72606810074	6126,66494541336	6126,59753768112	6126,52264687608	6126,44047224131	6126,35243285107	6126,26079299512	6126,16816017112	6126,07695018820	6125,98892095444	6125,90486386990	6125,82451122221	6125,74667515373	6125,66958694493	6125,59136396543	6125,51050431118	6125,42630185923	6125,33908922598	6125,25025036650	6125,16199163763	6125,07691059677	6124,99744529917	6124,92531436244	6124,86106375338	6124,80381868521	6124,75130146724	6124,70012592266	6124,64632592318	6124,58603006029	6124,51616531255	6124,43506530025	6124,34287451162	6124,24167540109	6124,13531345762	6124,02894699272	6123,92839400483	6123,83938013111	6123,76680450047	6123,71413308376	6123,68300439720	6123,67309556170	6123,68225484782	6123,70686730313	6123,74238915499	6123,78396861768	6123,82706709632	6123,86800452410	6123,90437248039	6123,93528424975	6123,96145715595	6123,98514496030	6124,00995374660	6124,04058209350	6124,08252572849	6124,14177995587	6124,22456255097	6124,33706840963	6124,48525762738	6124,67467267250	6124,91027866418	6125,19632311550	6125,53621656829	6125,93244149005	6126,38650166029	6126,89892639222	6127,46934225202	6128,09661911952	6128,77908788473	6129,51481490772	6130,30190538484	6131,13879639094	6132,02449344687	6132,95870475418	6133,94183664460	6134,97483249259	6136,05886321926	6137,19490618869	6138,38327489677	6139,62317838685	6140,91239220327	6142,24710991298	6143,62201695074	6145,03059097245	6146,46559156768	6147,91966486238	6149,38596288191	6150,85866954801	6152,33333775753	6153,80697392602	6155,27785217610	6156,74509114974	6158,20807189857	6159,66580604052	6161,11637301056	6162,55653185434	6163,98157943544	6165,38548001872	6166,76124043309	6168,10146058827	6169,39895983532	6170,64737108057	6171,84160770918	6172,97813947223	6174,05505489613	6175,07192992580	6176,02955633014	6176,92960239270	6177,77427995322	6178,56607737560	6179,30759221492	6180,00146694524	6180,65040325715	6181,25721130520	6181,82484383876	6182,35637234752	6182,85488097143	6183,32327908983	6183,76405888341	6184,17904355355	6184,56918073093	6184,93443201244	6185,27379454171	6185,58546750322	6185,86715015641	6186,11643370439	6186,33123129540	6186,51018186039	6186,65296565522	6186,76048186767	6186,83485939035	6186,87929746951	6186,89775925160	6186,89456396158	6186,87393880263	6186,83959708056	6186,79440355983	6186,74017250738	6186,67762086687	6186,60647247880	6186,52568389949	6186,43374278108	6186,32897963856	6186,20983516498	6186,07503792066	6185,92366883110	6185,75511521144	6185,56894262744	6185,36473240775	6185,14194173737	6184,89983971604	6184,63755685346	6184,35426007662	6184,04943540151	6183,72323206966	6183,37680121319	6183,01255374342	6182,63426859244	6182,24700317340	6181,85678951662	6181,47013621492	6181,09339114689	6180,73204631478	6180,39007908173	6180,06942133709	6179,76963041290	6179,48780643749	6179,21876570744	6178,95544484461	6178,68948178538	6178,41190127841	6178,11382650514	6177,78714411734	6177,42506466428	6177,02253997633	6176,57651928363	6176,08604322849	6175,55218758620	6174,97787627081	6174,36758724438	6173,72697708302	6173,06245184683	6172,38071446866	6171,68832199333	6170,99128853310	6170,29476996648	6169,60286230001	6168,91853592042	6168,24371259778	6167,57947259065	6166,92635865976	6166,28472632209	6165,65507937920	6165,03832962823	6164,43593071625	6163,84985698287	6163,28242538334	6162,73598731496	6162,21254208598	6161,71334016972	6161,23854908288	6160,78704663635	6160,35638670521	6159,94295496694	6159,54230114886	6159,14960559744	6158,76021626959	6158,37018097141	6157,97670034232	6157,57843921883	6157,17565539168	6156,77013189724	6156,36492763769	6155,96398695493	6155,57166790970	6155,19225859855	6154,82954951980	6154,48651813263	6154,16516135077	6153,86648610948	6153,59064148221	6153,33715243312	6153,10519908710	6152,89387928216	6152,70239752974	6152,53013984003	6152,37661864690	6152,24130096934	6152,12336049161	6152,02141477098	6151,93331759702	6151,85607097365	6151,78590137815	6151,71851393485	6151,64950152554	6151,57485080577	6151,49146093784	6151,39757957184	6151,29306750190	6151,17942824720	6151,05957762919	6150,93737427820	6150,81697625570	6150,70212301951	6150,59545900393	6150,49801155817	6150,40891225063	6150,32541082499	6150,24318261193	6150,15688175089	6150,06085280988	6149,94988917613	6149,81992176332	6149,66853632967	6149,49524868126	6149,30150815881	6149,09044352226	6148,86640410427	6148,63437671841	6148,39937146689	6148,16586635273	6147,93738332098	6147,71624113321	6147,50349872804	6147,29907206983	6147,10198276456	6146,91068120526	6146,72338208278	6146,53835532452	6146,35412902596	6146,16957993531	6145,98390836591	6145,79651490492	6145,60681314895	6145,41402368269	6145,21699813155	6145,01411779655	6144,80329958925	6144,58212425776	6144,34808070725	6144,09889874175	6143,83292425685	6143,54947906117	6143,24914458841	6142,93391595551	6142,60718959733	6142,27357174286	6141,93852246325	6141,60787623772	6141,28730029722	6140,98176270367	6140,69508114656	6140,42961078606	6140,18610721198	6139,96377253552	6139,76046371897	6139,57301769402	6139,39763216453	6139,23023718836	6139,06680136126	6138,90353582131	6138,73698523843	6138,56402190140	6138,38178115667	6138,18758899162	6137,97893274401	6137,75351366085	6137,50939790196	6137,24525530526	6136,96064869520	6136,65631656934	6136,33438321789	6135,99843506064	6135,65341982726	6135,30535311459	6134,96084976676	6134,62652941298	6134,30837053060	6134,01110101541	6133,73771289263	6133,48917433940	6133,26438580793	6133,06039287210	6132,87283182813	6132,69655073539	6132,52632352950	6132,35756167585	6132,18692820709	6132,01277247910	6131,83532832332	6131,65664986455	6131,48029376323	6131,31078954055	6131,15296684648	6131,01122675290	6130,88885127257	6130,78744058088	6130,70655156479	6130,64358640900	6130,59394909701	6130,55145477330	6130,50894589644	6130,45904374227	6130,39494710000	6130,31118388577	6130,20422653697	6130,07289776263	6129,91851759173	6129,74477279558	6129,55732217077	6129,36318216623	6129,16996341083	6128,98504683983	6128,81479610094	6128,66389952561	6128,53492016217	6128,42810748723	6128,34149205772	6128,27124829047	6128,21227529326	6128,15891601013	6128,10571530476	6128,04811136940	6127,98296373278	6127,90884473111	6127,82605683396	6127,73638071657	6127,64260187481	6127,54789971312	6127,45520588690	6127,36664369355	6127,28314592357	6127,20431676538	6127,12855942703	6127,05344291441	6126,97623778549	6126,89451992594	6126,80672938916	6126,71258046784	6126,61324766446	6126,51129456978	6126,41036064034	6126,31466530417	6126,22842140199	6126,15526487284	6126,09780255152	6126,05735654525	6126,03394684974	6126,02651086537	6126,03331727911	6126,05249963357	6126,08261701221	6126,12314797200	6126,17483842198	6126,23985115977	6126,32169897268	6126,42497856572	6126,55495340036	6126,71705532119	6126,91638484683	6127,15728734208	6127,44306790163	6127,77588409701	6128,15682635266	6128,58616495151	6129,06371512983	6129,58925172205	6130,16289572722	6130,78539877732	6131,45826754160	6132,18369623125	6132,96430743678	6133,80273435731	6134,70110575405	6135,66051410345	6136,68055429305	6137,75901352086	6138,89177362466	6140,07295768438	6141,29531782592	6142,55082602593	6143,83139962163	6145,12967239744	6146,43971310333	6147,75759677487	6149,08174942351	6150,41301160042	6151,75439831623	6153,11056852442	6154,48705297759	6155,88932048711	6157,32178531095	6158,78686927459	6160,28422955759	6161,81024702254	6163,35784247430	6164,91665259749	6166,47355761585	6168,01351343103	6169,52060668432	6170,97922606658	6172,37523057086	6173,69699689801	6174,93624341388	6176,08855431968	6177,15356091771	6178,13477238256	6179,03908207589	6179,87600402615	6180,65671581254	6181,39299786937	6182,09616503198	6182,77608433317	6183,44036427736	6184,09378584900	6184,73802514709	6185,37169257157	6185,99068489721	6186,58881588175	6187,15866072353	6187,69252321873	6188,18341608648	6188,62593871852	6189,01694541123	6189,35592153091	6189,64502278806	6189,88877883474	6190,09350971680	6190,26654450911	6190,41535865281	6190,54675517056	6190,66620335501	6190,77741871391	6190,88222534673	6190,98069437391	6191,07150823033	6191,15246832763	6191,22104804710	6191,27489602363	6191,31221431772	6191,33196733952	6191,33391337269	6191,31848392020	6191,28656060731	6191,23921102933	6191,17744264161	6191,10201945538	6191,01336425417	6190,91154501599	6190,79632404934	6190,66723664346	6190,52366516715	6190,36488411822	6190,19006856653	6189,99827777466	6189,78844184859	6189,55938709126	6189,30993227453	6189,03907304910	6188,74624787797	6188,43165140410	6188,09653668973	6187,74343296074	6187,37620551179	6186,99990160243	6186,62035916728	6186,24359890733	6185,87506677462	6185,51883348139	6185,17688140536	6184,84861053217	6184,53067130949	6184,21718575129	6183,90035578611	6183,57139027741	6183,22162174681	6182,84364250391	6182,43227668738	6181,98522388300	6181,50325974711	6180,98995166442	6180,45093036849	6179,89283663330	6179,32212100453	6178,74390276880	6178,16108618903	6177,57388840697	6176,97986188194	6176,37440761459	6175,75168943137	6175,10578999432	6174,43190863654	6173,72739677697	6172,99245878865	6172,23040810811	6171,44744792197	6170,65202782831	6169,85389739215	6169,06302237831	6168,28854262700	6167,53793120773	6166,81646792051	6166,12707657069	6165,47050764152	6164,84578905945	6164,25082822353	6163,68303437981	6163,13984235112	6162,61905203257	6162,11894463042	6161,63818630607	6161,17557300418	6160,72969923166	6160,29864412984	6159,87975979245	6159,46962240032	6159,06417207766	6158,65902963443	6158,24994478886	6157,83330693035	6157,40663943011	6156,96900250902	6156,52124565165	6156,06607453555	6155,60792456990	6155,15265869491	6154,70712731709	6154,27864082985	6153,87440942103	6153,50100166008	6153,16386471665	6152,86693761358	6152,61237721458	6152,40040658114	6152,22928777269	6152,09541592391	6151,99352756163	6151,91701237949	6151,85831305087	6151,80939171504	6151,76223489009	6151,70936185039	6151,64429654428	6151,56196160294	6151,45895625404	6151,33368862172	6151,18634659441	6151,01870875270	6150,83381547917	6150,63553753960	6150,42809236273	6150,21556472597	6150,00148732142	6149,78852772095	6149,57831286952	6149,37140281439	6149,16740502530	6148,96520260277	6148,76325662255	6148,55993650157	6148,35383293957	6148,14401474844	6147,93020183681	6147,71283946752	6147,49307148721	6147,27262093837	6147,05359446680	6146,83823213680	6146,62862712264	6146,42644098010	6146,23264048766	6146,04728172350	6145,86936595418	6145,69678940112	6145,52640407357	6145,35419874327	6145,17559743320	6144,98585803884	6144,78053749351	6144,55597477923	6144,30973218837	6144,04093163372	6143,75042881092	6143,44078452402	6143,11601843991	6142,78116276581	6142,44166683062	6142,10273219764	6141,76867572976	6141,44242036471	6141,12519822082	6140,81651931476	6140,51441622715	6140,21592773005	6139,91774128454	6139,61688375740	6139,31133809762	6139,00047414591	6138,68521318880	6138,36789312753	6138,05185571662	6137,74082902577	6137,43821718276	6137,14642797562	6136,86636331221	6136,59716876608	6136,33629183709	6136,07984287279	6135,82319827391	6135,56174275804	6135,29162390999	6135,01039202888	6134,71742084314	6134,41404507093	6134,10340084007	6133,79000495490	6133,47914978197	6133,17621537856	6132,88600620980	6132,61220704884	6132,35702543357	6132,12105259956	6131,90333818090	6131,70164264882	6131,51281020129	6131,33319594523	6131,15908442999	6130,98704933951	6130,81422240870	6130,63845895489	6130,45840396512	6130,27347397082	6130,08377518583	6129,88997837268	6129,69316752716	6129,49467505071	6129,29591267160	6129,09820623425	6128,90264376965	6128,70994909443	6128,52039592425	6128,33377827121	6128,14945023195	6127,96644151367	6127,78364462999	6127,60005711913	6127,41504964660	6127,22862102316	6127,04159637821	6126,85572670514	6126,67365741989	6126,49874984402	6126,33476070153	6126,18540772884	6126,05387058786	6125,94229166456	6125,85134796264	6125,77996143006	6125,72520066922	6125,68240381934	6125,64552367061	6125,60766590414	6125,56176412703	6125,50131502026	6125,42108634679	6125,31771125776	6125,19009418702	6125,03957504697	6124,86982665993	6124,68649186208	6124,49659771711	6124,30781115681	6124,12762002209	6123,96253358810	6123,81739588354	6123,69489325892	6123,59531574913	6123,51660205279	6123,45466370989	6123,40394935399	6123,35817911871	6123,31115656675	6123,25755429681	6123,19357178460	6123,11738039638	6123,02929923854	6122,93168295420	6122,82854351371	6122,72496635387	6122,62641087148	6122,53800139915	6122,46391458482	6122,40695241946	6122,36835962567	6122,34790470731	6122,34420214878	6122,35521589961	6122,37885741814	6122,41357933247	6122,45886980637	6122,51557181345	6122,58598212423	6122,67372159253	6122,78340525864	6122,92017212619	6123,08915561184	6123,29498370990	6123,54139190794	6123,83101282647	6124,16537717634	6124,54512511900	6124,97039069486	6125,44129035112	6125,95842517924	6126,52329952576	6127,13856835056	6127,80805149092	6128,53649128501	6129,32907466842	6130,19078413735	6131,12567590198	6132,13620143001	6133,22268628921	6134,38305716602	6135,61286751589	6136,90562145468	6138,25334369924	6139,64730076289	6141,07875382824	6142,53962178161	6144,02295396529	6145,52315153768	6147,03592545922	6148,55802790188	6150,08683277549	6151,61986306510	6153,15436452748	6154,68700791068	6156,21376993559	6157,73000421035	6159,23067548215	6160,71070173402	6162,16533357308	6163,59050049773	6164,98306680749	6166,34096148694	6167,66317083383	6168,94960501582	6170,20086679734	6171,41796083744	6172,60198520567	6173,75384413379	6174,87401416784	6175,96238667382	6177,01819978718	6178,04006356372	6179,02607373157	6179,97400186286	6180,88154256133	6181,74659134858	6182,56752105944	6183,34342122143	6184,07426585378	6184,76098163505	6185,40540055099	6186,01009759061	6186,57813220670	6187,11272880196	6187,61694318106	6188,09336618106	6188,54391128490	6188,96972025436	6189,37120164488	6189,74819478246	6190,10023040739	6190,42684261730	6190,72787790790	6191,00374739740	6191,25557738258	6191,48522937060	6191,69518086004	6191,88827924713	6192,06740032352	6192,23505744807	6192,39301589601	6192,54196822396	6192,68132070100	6192,80912870890	6192,92220194679	6193,01638021024	6193,08695964110	6193,12922990593	6193,13906688148	6193,11351495836	6193,05128946166	6192,95313380653	6192,82197801108	6192,66286436976	6192,48263082095	6192,28937033447	6192,09171235350	6191,89799649700	6191,71542603894	6191,54929641479	6191,40239048726	6191,27461721198	6191,16294486979	6191,06164683424	6190,96284081133	6190,85726630334	6190,73521458484	6190,58750510283	6190,40639508572	6190,18631665904	6189,