1887,24139078787	1887,22521220031	1887,20967966251	1887,19483071485	1887,18054123677	1887,16656938001	1887,15262320292	1887,13843624668	1887,12383387344	1887,10877549538	1887,09336334067	1887,07781591726	1887,06241222048	1887,04741928642	1887,03301951847	1887,01925450243	1887,00599872783	1886,99297045922	1886,97977926395	1886,96600202260	1886,95127321983	1886,93537216002	1886,91829008508	1886,90026387013	1886,88176923030	1886,86347388767	1886,84615841117	1886,83061805627	1886,81756188763	1886,80752533027	1886,80080925212	1886,79745346995	1886,79724629899	1886,79976566790	1886,80444251211	1886,81063442902	1886,81769726142	1886,82504422051	1886,83218579829	1886,83874820993	1886,84447252398	1886,84920015161	1886,85285239478	1886,85541204528	1886,85691367321	1886,85744662585	1886,85717144718	1886,85634706680	1886,85536329308	1886,85477134274	1886,85530461928	1886,85788277590	1886,86359412612	1886,87365439263	1886,88934319746	1886,91192311852	1886,94254909747	1886,98217805941	1887,03148948018	1887,09082713595	1887,16017039274	1887,23914032369	1887,32704203537	1887,42294032156	1887,52576168158	1887,63441234992	1887,74789969510	1887,86544343041	1887,98656365926	1888,11113484112	1888,23939817378	1888,37192937273	1888,50956396991	1888,65328747477	1888,80410235692	1888,96288712742	1889,13026425249	1889,30649292541	1889,49139987997	1889,68435681361	1889,88430722255	1890,08983931796	1890,29929602082	1890,51090859469	1890,72293787318	1890,93380661268	1891,14220825024	1891,34718092684	1891,54814042804	1891,74487094340	1891,93747752318	1892,12630822853	1892,31185683615	1892,49465836177	1892,67518955966	1892,85378503088	1893,03057687837	1893,20546237900	1893,37810041204	1893,54793392917	1893,71423303228	1893,87615153949	1894,03278936679	1894,18325356340	1894,32671222048	1894,46243744916	1894,58983586451	1894,70846714243	1894,81805286576	1894,91847873974	1895,00979318455	1895,09220436313	1895,16607615084	1895,23192183160	1895,29039289912	1895,34225967530	1895,38838079746	1895,42966002010	1895,46699103322	1895,50119371762	1895,53294788652	1895,56273251384	1895,59077921700	1895,61704805038	1895,64123146243	1895,66278886722	1895,68101021100	1895,69510283447	1895,70429249296	1895,70792712014	1895,70557112693	1895,69707880388	1895,68263762272	1895,66277561956	1895,63833118185	1895,61038797399	1895,58018191450	1895,54899056129	1895,51801752389	1895,48828526157	1895,46054866336	1895,43523917401	1895,41244520385	1895,39192965393	1895,37318030290	1895,35548433390	1895,33801518772	1895,31991878877	1895,30038726494	1895,27871142994	1895,25430796480	1895,22672253486	1895,19561495106	1895,16073590985	1895,12190607269	1895,07900695777	1895,03198952748	1894,98090118285	1894,92592620985	1894,86742980659	1894,80599279461	1894,74242376840	1894,67773801889	1894,61309772972	1894,54971479461	1894,48872488389	1894,43104772982	1894,37725279889	1894,32745075400	1894,28122908020	1894,23764520335	1894,19528311014	1894,15237096272	1894,10694874653	1894,05706782056	1894,00099937185	1893,93742687734	1893,86559898536	1893,78542355072	1893,69749031935	1893,60301811105	1893,50373128310	1893,40167871765	1893,29901556940	1893,19777270124	1893,09964054191	1893,00579276236	1892,91677079366	1892,83244327029	1892,75204575609	1892,67429659616	1892,59757554741	1892,52014408008	1892,44038089608	1892,35700401482	1892,26925210653	1892,17700253237	1892,08081123110	1891,98186920841	1891,88188069735	1891,78287773893	1891,68699376161	1891,59622376348	1891,51220033325	1891,43601280844	1891,36809159584	1891,30817168788	1891,25533963782	1891,20815787530	1891,16485052311	1891,12352704309	1891,08241512914	1891,04007298477	1890,99555374883	1890,94850114951	1890,89916474645	1890,84833417971	1890,79720315757	1890,74718382291	1890,69969909498	1890,65598343348	1890,61692067493	1890,58294135359	1890,55399219495	1890,52957882209	1890,50887106250	1890,49085052965	1890,47447401435	1890,45882467778	1890,44322630976	1890,42730336440	1890,41097972164	1890,39442026915	1890,37792943468	1890,36182795627	1890,34633226287	1890,33145945159	1890,31697542414	1890,30239543974	1890,28703677072	1890,27011406005	1890,25086092036	1890,22865735376	1890,20314215381	1890,17429237616	1890,14245750005	1890,10834297533	1890,07294527294	1890,03744723586	1890,00308760860	1889,97102157743	1889,94218978748	1889,91721173290	1889,89631600060	1889,87931511430	1889,86562728886	1889,85434189820	1889,84432047766	1889,83432112978	1889,82313167488	1889,80969603529	1889,79321925383	1889,77323913529	1889,74965649176	1889,72272092989	1889,69297447073	1889,66116040756	1889,62810905965	1889,59461493834	1889,56132093440	1889,52862430224	1889,49661653455	1889,46506500412	1889,43343901188	1889,40097727314	1889,36678860377	1889,32997329566	1889,28974993786	1889,24557159182	1889,19721639244	1889,14484070179	1889,08898754429	1889,03054864776	1888,97068430231	1888,91071065274	1888,85196822050	1888,79568781534	1888,74287020310	1888,69419391427	1888,64996169566	1888,61009088995	1888,57414722687	1888,54141595331	1888,51099970133	1888,48192960892	1888,45327532405	1888,42424066949	1888,39423463200	1888,36291140599	1888,33017775680	1888,29617025121	1888,26120832808	1888,22573136824	1888,19022874057	1888,15517136683	1888,12095195800	1888,08783912564	1888,05594846528	1888,02523177445	1887,99548400460	1887,96636640684	1887,93744354089	1887,90823122571	1887,87825196472	1887,84709378264	1887,81446776344	1887,78025898531	1887,74456519513	1887,70771767600	1887,67027954622	1887,63301832117	1887,59685197813	1887,56277083158	1887,53174091824	1887,50459782841	1887,48194244484	1887,46405133405	1887,45081418704	1887,44170857226	1887,43581847407	1887,43189805997	1887,42847649253	1887,42399414801	1887,41695610604	1887,40608589980	1887,39046171692	1887,36961868511	1887,34360442379	1887,31298027408	1887,27876689765	1887,24233949520	1887,20528394386	1887,16922995291	1887,13568029362	1887,10585587145	1887,08057473131	1887,06017914438	1887,04451913058	1887,03299378794	1887,02464448537	1887,01828728144	1887,01266678690	1887,00661087066	1886,99916561654	1886,98969289182	1886,97791847201	1886,96392612521	1886,94810128494	1886,93103562300	1886,91340967688	1886,89587365145	1886,87894602842	1886,86294571854	1886,84796685415	1886,83389715607	1886,82047265611	1886,80735498383	1886,79421372432	1886,78079625778	1886,76697101698	1886,75273651052	1886,73819640976	1886,72350879441	1886,70882361633	1886,69422526596	1886,67969616572	1886,66511273204	1886,65027779159	1886,63498514572	1886,61910425775	1886,60266767863	1886,58594203278	1886,56946561569	1886,55404151132	1886,54068345350	1886,53052074100	1886,52467652540	1886,52413911353	1886,52964752796	1886,54161018795	1886,56006975763	1886,58471916719	1886,61496514831	1886,65002798451	1886,68906092790	1886,73127070291	1886,77602186899	1886,82291205448	1886,87181119326	1886,92286460082	1886,97646570745	1887,03320845627	1887,09383113976	1887,15916267913	1887,23007943909	1887,30747638883	1887,39225174655	1887,48530016265	1887,58750682462	1887,69973413333	1887,82279396255	1887,95740173770	1888,10411304963	1888,26324837718	1888,43481572271	1888,61844364479	1888,81333765369	1889,01827099832	1889,23161676681	1889,45142260580	1889,67552315830	1889,90167954344	1890,12773079591	1890,35173988466	1890,57211715519	1890,78770680720	1890,99782691971	1891,20225978070	1891,40119584326	1891,59514046702	1891,78479685568	1891,97094075660	1892,15430242276	1892,33546926290	1892,51481896787	1892,69248827872	1892,86837759361	1893,04218693891	1893,21347504375	1893,38173081284	1893,54644564888	1893,70717584627	1893,86358645760	1894,01547124873	1894,16274714974	1894,30542548849	1894,44356577762	1894,57722046327	1894,70638045286	1894,83093117509	1894,95062734846	1895,06509174843	1895,17383950061	1895,27632537370	1895,37200783671	1895,46042085612	1895,54124297244	1895,61435334467	1895,67986618143	1895,73813804333	1895,78974643328	1895,83544226608	1895,87608255038	1895,91255233191	1895,94568623326	1895,97619964406	1896,00463788895	1896,03134886725	1896,05648118405	1896,08000618998	1896,10175910697	1896,12149196022	1896,13892968023	1896,15382066993	1896,16597438191	1896,17528087538	1896,18171060033	1896,18529630438	1896,18610238585	1896,18418960379	1896,17958426097	1896,17226044877	1896,16214162638	1896,14912399007	1896,13311939953	1896,11411094090	1896,09221048182	1896,06770566608	1896,04108424818	1896,01302658374	1895,98436207344	1895,95599157547	1895,92878414283	1895,90346173717	1895,88048881887	1895,85998427423	1895,84167084853	1895,82487243314	1895,80856294738	1895,79146318100	1895,77217493599	1895,74933616342	1895,72177733824	1895,68865852859	1895,64956860603	1895,60457256015	1895,55419937185	1895,49937057339	1895,44127753620	1895,38122266864	1895,32044510065	1895,25995425903	1895,20039444762	1895,14195998391	1895,08437390577	1895,02693451835	1894,96862426435	1894,90826599167	1894,84470413395	1894,77698390761	1894,70450125280	1894,62710019108	1894,54510211563	1894,45926214071	1894,37065932840	1894,28053841370	1894,19012866737	1894,10046930849	1894,01226967149	1893,92582628937	1893,84100919787	1893,75731781603	1893,67399484839	1893,59017693057	1893,50505497003	1893,41801634743	1893,32874541886	1893,23726718714	1893,14392988555	1893,04933338789	1892,95421968759	1892,85934748462	1892,76537426673	1892,67276617002	1892,58174921958	1892,49230680137	1892,40421923579	1892,31713388801	1892,23064972114	1892,14439926154	1892,05811349860	1891,97166045641	1891,88505472014	1891,79844156640	1891,71206418487	1891,62622488148	1891,54125080891	1891,45747198198	1891,37521491331	1891,29481026784	1891,21660866242	1891,14099611672	1891,06840028131	1890,99928048932	1890,93409843710	1890,87327102338	1890,81711150135	1890,76576861258	1890,71917503826	1890,67701599489	1890,63872623245	1890,60351955974	1890,57045007217	1890,53849933570	1890,50667967292	1890,47414100427	1890,44026776144	1890,40475326941	1890,36764149434	1890,32932979901	1890,29053084981	1890,25219656185	1890,21541144705	1890,18126648018	1890,15072721771	1890,12451107184	1890,10298815490	1890,08611792100	1890,07343009243	1890,06405342305	1890,05679026320	1890,05022932534	1890,04288422901	1890,03334199385	1890,02040415378	1890,00320384148	1889,98128499487	1889,95463441899	1889,92366319515	1889,88914009950	1889,85208546789	1889,81363858922	1889,77491466991	1889,73686836957	1889,70017981289	1889,66517603846	1889,63179646605	1889,59960571080	1889,56785157144	1889,53556089173	1889,50166178462	1889,46511785055	1889,42505880258	1889,38089246459	1889,33238539178	1889,27970314725	1889,22340613469	1889,16440224745	1889,10386275328	1889,04311208646	1888,98350497102	1888,92630517173	1888,87257907920	1888,82311450792	1888,77837102345	1888,73846351197	1888,70317633141	1888,67200194784	1888,64419598041	1888,61884027221	1888,59490684633	1888,57131794528	1888,54700011587	1888,52093275381	1888,49219303653	1888,45999938596	1888,42375450112	1888,38308692223	1888,33788764746	1888,28833626077	1888,23491003506	1888,17837001565	1888,11972028000	1888,06014012974	1888,00089327045	1887,94322223177	1887,88823950995	1887,83682847850	1887,78956662847	1887,74668117247	1887,70804285837	1887,67319866752	1887,64143876198	1887,61188845802	1887,58361286284	1887,55572058625	1887,52745375465	1887,49825418669	1887,46779951274	1887,43600752861	1887,40301141911	1887,36911202727	1887,33471563933	1887,30026662209	1887,26618375361	1887,23280749708	1887,20036317274	1887,16894241343	1887,13850283689	1887,10888382404	1887,07983482017	1887,05105171702	1887,02221657376	1886,99303609645	1886,96327481257	1886,93277966285	1886,90149372356	1886,86945791458	1886,83680078844	1886,80371776103	1886,77044234734	1886,73721299576	1886,70423984578	1886,67167603765	1886,63959796081	1886,60799796867	1886,57679161563	1886,54583949629	1886,51498150725	1886,48407912384	1886,45305945517	1886,42195377407	1886,39092321023	1886,36026550632	1886,33039914901	1886,30182455836	1886,27506589397	1886,25060078566	1886,22878821264	1886,20980618911	1886,19361041768	1886,17992252024	1886,16825211510	1886,15795152026	1886,14829614890	1886,13857877188	1886,12820272767	1886,11675856914	1886,10407082961	1886,09020633227	1886,07544201719	1886,06019747841	1886,04494395794	1886,03010615522	1886,01597492421	1886,00264731219	1885,99000564591	1885,97774031165	1885,96541279358	1885,95254794982	1885,93873886322	1885,92374499195	1885,90756527352	1885,89047212897	1885,87299915923	1885,85588343578	1885,83997117077	1885,82610180504	1885,81498912512	1885,80711839203	1885,80267570626	1885,80152055362	1885,80320567135	1885,80704122183	1885,81219390437	1885,81780699287	1885,82312492535	1885,82760615539	1885,83101028980	1885,83344957111	1885,83539982281	1885,83767130707	1885,84134483915	1885,84768237520	1885,85802373096	1885,87368188745	1885,89584850073	1885,92551896276	1885,96344305209	1886,01010339405	1886,06572021062	1886,13027773951	1886,20356567061	1886,28522820760	1886,37481389412	1886,47182090138	1886,57573465010	1886,68605695396	1886,80232786434	1886,92414270250	1887,05116717475	1887,18315294825	1887,31995477920	1887,46154854334	1887,60804772961	1887,75971452864	1887,91696090116	1888,08033512854	1888,25049035751	1888,42813346327	1888,61395499598	1888,80854380180	1889,01229280341	1889,22530497806	1889,44731031806	1889,67760505488	1889,91502337051	1890,15794915378	1890,40437131745	1890,65198126184	1890,89830589503	1891,14086489091	1891,37733723845	1891,60572015619	1891,82446349686	1892,03256498531	1892,22961584122	1892,41579201763	1892,59179263565	1892,75873327822	1892,91800674348	1893,07112700572	1893,21957317224	1893,36464918325	1893,50737218424	1893,64839841178	1893,78799068933	1893,92602687521	1894,06204442476	1894,19531307025	1894,32492572576	1894,44989711205	1894,56926011230	1894,68215125789	1894,78787873368	1894,88596864401	1894,97618779019	1895,05854367778	1895,13326468864	1895,20076509823	1895,26160070298	1895,31642112988	1895,36592442275	1895,41081834570	1895,45179121547	1895,48949323486	1895,52452752862	1895,55744863656	1895,58876529131	1895,61894399695	1895,64841022135	1895,67754480897	1895,70667433495	1895,73605536058	1895,76585374301	1895,79612118103	1895,82677197512	1895,85756350782	1895,88808418178	1895,91775244574	1895,94583004238	1895,97145167336	1895,99367187200	1896,01152803150	1896,02411636908	1896,03067532552	1896,03066881162	1896,02386019385	1896,01036733936	1895,99068972102	1895,96570065815	1895,93660115383	1895,90483615011	1895,87197880513	1895,83959291359	1895,80908713912	1895,78157670948	1895,75776826317	1895,73788153358	1895,72161771686	1895,70817916463	1895,69633914552	1895,68455460544	1895,67110989617	1895,65427598835	1895,63246817879	1895,60438590404	1895,56912084131	1895,52622359624	1895,47572432529	1895,41810790050	1895,35424899660	1895,28531619241	1895,21265646344	1895,13767218341	1895,06170207866	1894,98591581898	1894,91122952245	1894,83824684774	1894,76722790055	1894,69808609528	1894,63041143202	1894,56351730511	1894,49650684702	1894,42835385474	1894,35799254107	1894,28440975823	1894,20673305393	1894,12430803231	1894,03675906433	1893,94402843667	1893,84639050233	1893,74443920642	1893,63904937079	1893,53131417064	1893,42246316959	1893,31376696907	1893,20643587973	1893,10152096339	1892,99982623255	1892,90184060653	1892,80769725341	1892,71716606917	1892,62968222842	1892,54441012418	1892,46033792669	1892,37639393405	1892,29157245781	1892,20505478589	1892,11631029257	1892,02516432256	1891,93182308117	1891,83685109709	1891,74110322732	1891,64561971286	1891,55149840428	1891,45976196412	1891,37123889357	1891,28647533526	1891,20568998848	1891,12877783758	1891,05536080778	1890,98487617922	1890,91668783705	1890,85020218898	1890,78497038133	1890,72076128371	1890,65759502460	1890,59573363860	1890,53563238830	1890,47786132937	1890,42301073938	1890,37159559546	1890,32397331480	1890,28028585778	1890,24043274903	1890,20407647304	1890,17067691853	1890,13954780186	1890,10992575947	1890,08104222196	1890,05218912627	1890,02277161321	1889,99234358162	1889,96062479594	1889,92750071204	1889,89300798418	1889,85730960373	1889,82066382492	1889,78339061654	1889,74583858178	1889,70835437452	1889,67125583204	1889,63480948197	1889,59921280610	1889,56458160526	1889,53094289840	1889,49823387972	1889,46630743706	1889,43494453033	1889,40387330923	1889,37279423034	1889,34140967152	1889,30945573449	1889,27673320061	1889,24313410612	1889,20866026456	1889,17343039247	1889,13767333864	1889,10170626366	1889,06589837744	1889,03062285352	1888,99620156451	1888,96284902345	1888,93062304460	1888,89938984666	1888,86881039454	1888,83835264962	1888,80733121511	1888,77497197936	1888,74049532264	1888,70320792367	1888,66259085784	1888,61837107964	1888,57056485240	1888,51948520575	1888,46571065312	1888,41001840947	1888,35329118652	1888,29641122343	1888,24015760823	1888,18512260210	1888,13165953738	1888,07986940606	1888,02962644251	1887,98063608972	1887,93251304792	1887,88486377274	1887,83735751644	1887,78977289235	1887,74201243706	1887,69408463780	1887,64605993159	1887,59801278764	1887,54996496147	1887,50184471749	1887,45347330313	1887,40458395117	1887,35487144408	1887,30406331546	1887,25199855944	1887,19869737558	1887,14440650594	1887,08960892660	1887,03499318308	1886,98138518426	1886,92965229284	1886,88059471439	1886,83484155141	1886,79276809219	1886,75444720740	1886,71964191549	1886,68783938740	1886,65832013746	1886,63025101052	1886,60278761658	1886,57517142074	1886,54680862131	1886,51732168609	1886,48656914777	1886,45463409558	1886,42178595832	1886,38842311332	1886,35500533101	1886,32198512280	1886,28974597142	1886,25855358866	1886,22852419325	1886,19961169373	1886,17161383552	1886,14419591693	1886,11692955702	1886,08934309905	1886,06097944058	1886,03145633980	1886,00052359426	1885,96811105804	1885,93436145563	1885,89964257987	1885,86453489145	1885,82979282372	1885,79628113085	1885,76489110258	1885,73644492698	1885,71159930945	1885,69076102828	1885,67402691075	1885,66115848917	1885,65159743308	1885,64452223036	1885,63894033135	1885,63380411608	1885,62813467661	1885,62113542872	1885,61227851764	1885,60135088989	1885,58845323814	1885,57395275884	1885,55839843464	1885,54241392640	1885,52658689841	1885,51137393615	1885,49703701630	1885,48362131166	1885,47097611479	1885,45881238360	1885,44678347198	1885,43457139024	1885,42196029455	1885,40888197036	1885,39542423418	1885,38180117481	1885,36829234759	1885,35516473642	1885,34259512507	1885,33061068368	1885,31906203944	1885,30763658334	1885,29591158507	1885,28343849114	1885,26984319671	1885,25492339752	1885,23872403706	1885,22157534296	1885,20408428424	1885,18707824970	1885,17150786516	1885,15832270040	1885,14833804170	1885,14211229641	1885,13985288813	1885,14136415116	1885,14604459024	1885,15293398626	1885,16080426369	1885,16828269035	1885,17399247579	1885,17669445747	1885,17541427640	1885,16954193714	1885,15889443191	1885,14373660369	1885,12476004542	1885,10302406304	1885,07986616561	1885,05679192360	1885,03535524389	1885,01704017361	1885,00315440088	1884,99474288270	1884,99252774540	1884,99687802355	1885,00781015876	1885,02501767035	1885,04792619987	1885,07576835030	1885,10767148637	1885,14275099589	1885,18020145750	1885,21937870183	1885,25986682953	1885,30152575842	1885,34451667130	1885,38930465097	1885,43663962538	1885,48751830873	1885,54313094574	1885,60479724677	1885,67389593683	1885,75179194715	1885,83976465821	1885,93894000401	1886,05022886641	1886,17427410779	1886,31140874306	1886,46162794381	1886,62457755315	1886,79956135435	1886,98556837353	1887,18132003348	1887,38533517427	1887,59600907675	1887,81170098351	1888,03082351278	1888,25192702854	1888,47377252878	1888,69538781111	1888,91610326455	1889,13556524580	1889,35372633284	1889,57081272105	1889,78726978578	1890,00368769171	1890,22071019465	1890,43893160364	1890,65878913633	1890,88046023227	1891,10377622735	1891,32816452140	1891,55263044458	1891,77578710382	1891,99593654210	1892,21119896176	1892,41967938298	1892,61965413743	1892,80975440039	1892,98912177616	1893,15751255314	1893,31533275156	1893,46359487341	1893,60379806299	1893,73774451878	1893,86731466078	1893,99423014457	1894,11983618291	1894,24493232714	1894,36967419276	1894,49355864404	1894,61549329183	1894,73393965497	1894,84710973428	1894,95318937441	1895,05055936792	1895,13798685806	1895,21476471605	1895,28078427108	1895,33653586951	1895,38304097185	1895,42172767843	1895,45426774426	1895,48239666060	1895,50773899003	1895,53165897907	1895,55515201255	1895,57878644248	1895,60269858228	1895,62663708597	1895,65004732917	1895,67218239494	1895,69222522630	1895,70940654492	1895,72310508129	1895,73292011128	1895,73871067216	1895,74060049264	1895,73895198464	1895,73431608230	1895,72736690376	1895,71883097958	1895,70942016641	1895,69977556433	1895,69042715357	1895,68177092583	1895,67406249398	1895,66742394671	1895,66185936863	1895,65727409071	1895,65349330080	1895,65027689782	1895,64732908021	1895,64430275973	1895,64080017888	1895,63637189148	1895,63051648954	1895,62268320444	1895,61227894556	1895,59868065932	1895,58125325797	1895,55937286381	1895,53245473333	1895,49998489175	1895,46155412268	1895,41689245201	1895,36590164900	1895,30868263336	1895,24555419279	1895,17705927022	1895,10395544054	1895,02718715619	1894,94783889582	1894,86707038819	1894,78603739202	1894,70580379598	1894,62725271901	1894,55100549685	1894,47735765979	1894,40624008801	1894,33721148984	1894,26948537255	1894,20199109399	1894,13346481244	1894,06256263692	1893,98798544846	1893,90860307895	1893,82356506830	1893,73238620289	1893,63499742619	1893,53175627569	1893,42341533683	1893,31105179748	1893,19596548049	1893,07955621001	1892,96319361996	1892,84809327375	1892,73521214531	1892,62517421405	1892,51823343965	1892,41427715672	1892,31286849989	1892,21332237651	1892,11480619374	1892,01645431812	1891,91748423808	1891,81730261238	1891,71559071978	1891,61236110207	1891,50798017544	1891,40315497962	1891,29888570907	1891,19638889336	1891,09699877393	1891,00205634707	1890,91279657319	1890,83024432675	1890,75512877069	1890,68782403231	1890,62832145865	1890,57623556026	1890,53084233464	1890,49114538686	1890,45596253372	1890,42402372713	1890,39407037394	1890,36494652051	1890,33567380792	1890,30550435214	1890,27394843362	1890,24077672320	1890,20599937047	1890,16982634946	1890,13261480938	1890,09480975373	1890,05688421878	1890,01928437943	1889,98238386027	1889,94645016980	1889,91162478686	1889,87791715495	1889,84521177642	1889,81328678340	1889,78184177976	1889,75053234420	1889,71900829470	1889,68695258910	1889,65411757005	1889,62035519233	1889,58563797459	1889,55006778456	1889,51387027679	1889,47737389817	1889,44097384807	1889,40508314474	1889,37007484619	1889,33622126077	1889,30363736234	1889,27223628508	1889,24170445020	1889,21150242007	1889,18089500404	1889,14901066188	1889,11492626509	1889,07776931997	1889,03682644288	1888,99164479328	1888,94211277470	1888,88850783726	1888,83150259675	1888,77212534985	1888,71167677535	1888,65161037101	1888,59338916095	1888,53833470868	1888,48748598736	1888,44148497204	1888,40050299702	1888,36421730709	1888,33184138416	1888,30220626496	1888,27388395715	1888,24533896029	1888,21509043176	1888,18186614467	1888,14473026069	1888,10317002558	1888,05713146680	1888,00700047656	1887,95353254683	1887,89774101263	1887,84075905803	1887,78369415396	1887,72749447012	1887,67284492602	1887,62010611332	1887,56930293699	1887,52016242029	1887,47219283490	1887,42479031479	1887,37735537857	1887,32940095058	1887,28063566774	1887,23101107283	1887,18072782371	1887,13020307448	1887,08000741522	1887,03078408830	1886,98316493140	1886,93769646371	1886,89478611110	1886,85467358769	1886,81742701501	1886,78295860640	1886,75105162422	1886,72138939749	1886,69357853790	1886,66716168385	1886,64161931054	1886,61636434028	1886,59073647206	1886,56400456700	1886,53538472187	1886,50407894158	1886,46933511922	1886,43052419009	1886,38722582293	1886,33931075979	1886,28700658887	1886,23093463799	1886,17210870340	1886,11189100050	1886,05190630221	1885,99392086381	1885,93969760853	1885,89084250036	1885,84865862198	1885,81402402008	1885,78730694824	1885,76832803744	1885,75637366529	1885,75025903114	1885,74843389231	1885,74911926963	1885,75046025687	1885,75067874536	1885,74821053249	1885,74181379304	1885,73063988987	1885,71426242606	1885,69266561903	1885,66619779986	1885,63549947290	1885,60141743260	1885,56491668780	1885,52700042774	1885,48864530259	1885,45075545078	1885,41413471005	1885,37947306174	1885,34734123710	1885,31818697562	1885,29232773946	1885,26993743675	1885,25102823759	1885,23543201617	1885,22278844029	1885,21254755864	1885,20399355722	1885,19629326235	1885,18856848206	1885,17998626135	1885,16985659843	1885,15772410547	1885,14343922485	1885,12719625720	1885,10952946903	1885,09126432239	1885,07342746297	1885,05712541370	1885,04340689780	1885,03312654247	1885,02682795430	1885,02466179833	1885,02634995486	1885,03120078798	1885,03817393706	1885,04598677210	1885,05324956247	1885,05861311050	1885,06091143575	1885,05928310774	1885,05325779372	1885,04279907219	1885,02829997101	1885,01053334672	1884,99056444691	1884,96963716947	1884,94904815831	1884,93002365181	1884,91361285398	1884,90060870652	1884,89150271815	1884,88647556323	1884,88542021958	1884,88799021372	1884,89366272131	1884,90180526100	1884,91173565550	1884,92276761088	1884,93423815939	1884,94551756414	1884,95600623843	1884,96512600288	1884,97231403676	1884,97702697425	1884,97875995173	1884,97708158755	1884,97168168062	1884,96242473057	1884,94939998793	1884,93295814157	1884,91372608221	1884,89259419335	1884,87067474426	1884,84923442623	1884,82960808666	1884,81310359582	1884,80090908937	1884,79401342189	1884,79314869443	1884,79876057946	1884,81100841102	1884,82979324334	1884,85480885983	1884,88560844959	1884,92167857367	1884,96251211200	1885,00767291823	1885,05684658985	1885,10987373022	1885,16676403690	1885,22769131322	1885,29297101277	1885,36302322218	1885,43832511750	1885,51935789356	1885,60655387483	1885,70024981042	1885,80065205898	1885,90781836425	1886,02165920640	1886,14195942749	1886,26841823051	1886,40070308727	1886,53851093084	1886,68162859592	1886,82998405261	1886,98368066180	1887,14300840044	1887,30842854089	1887,48053130050	1887,65996915488	1887,84737151344	1888,04324901843	1888,24789760290	1888,46131337873	1888,68312917484	1888,91258192602	1889,14851711006	1889,38943227991	1889,63355693968	1889,87896125622	1890,12368212362	1890,36585255200	1890,60381967104	1890,83623799306	1891,06212784104	1891,28089358909	1891,49230189124	1891,69642550416	1891,89356271873	1892,08414504356	1892,26864621999	1892,44750393784	1892,62106224191	1892,78953834569	1892,95301327233	1893,11144219885	1893,26467813483	1893,41250186390	1893,55465184706	1893,69084968145	1893,82081917015	1893,94429944862	1894,06105435564	1894,17088096902	1894,27361988494	1894,36916863927	1894,45749808361	1894,53867002157	1894,61285337113	1894,68033574885	1894,74152767401	1894,79695741049	1894,84725556915	1894,89312974525	1894,93533048317	1894,97461064383	1895,01168078786	1895,04716352903	1895,08155002894	1895,11516194032	1895,14812214926	1895,18033754172	1895,21149661646	1895,24108399424	1895,26841269958	1895,29267357860	1895,31299950644	1895,32854032579	1895,33854295134	1895,34242995573	1895,33986936518	1895,33082843654	1895,31560492351	1895,29483078446	1895,26944540549	1895,24063810344	1895,20976274271	1895,17823046297	1895,14738941295	1895,11840262381	1895,09213636654	1895,06907123765	1895,04924667550	1895,03224667500	1895,01723038926	1895,00300650528	1894,98814530585	1894,97111778681	1894,95044766801	1894,92486009366	1894,89341057267	1894,85557936859	1894,81132000179	1894,76105546217	1894,70562165639	1894,64616389335	1894,58399811125	1894,52045330138	1894,45671447851	1894,39368603993	1894,33189317758	1894,27143425811	1894,21199026551	1894,15288939386	1894,09321684444	1894,03195310597	1893,96811966880	1893,90091011494	1893,82978718324	1893,75453242613	1893,67524348105	1893,59228328306	1893,50619399864	1893,41759441909	1893,32708182040	1893,23515739884	1893,14218868290	1893,04841393885	1892,95398422687	1892,85903035397	1892,76373627851	1892,66839878747	1892,57345592632	1892,47947322721	1892,38708593223	1892,29690526177	1892,20940528734	1892,12481236405	1892,04302022833	1891,96355049421	1891,88557099698	1891,80797458923	1891,72951041419	1891,64895030227	1891,56526644597	1891,47779403380	1891,38635442780	1891,29132031205	1891,19361289313	1891,09463114353	1890,99612258147	1890,90001272058	1890,80821507987	1890,72244505301	1890,64405909301	1890,57393614180	1890,51241193163	1890,45926976901	1890,41378472922	1890,37481269904	1890,34091196131	1890,31048321245	1890,28191390114	1890,25371418254	1890,22463408771	1890,19375420480	1890,16054485794	1890,12489121271	1890,08708386246	1890,04777632347	1890,00791262499	1889,96862995310	1889,93114314408	1889,89661964044	1889,86605509632	1889,84016081963	1889,81927431208	1889,80330303478	1889,79170906841	1889,78353865585	1889,77749604408	1889,77205610433	1889,76560554322	1889,75659876896	1889,74371220125	1889,72598037616	1889,70289871857	1889,67448118683	1889,64126575087	1889,60426627954	1889,56487522746	1889,52472685918	1889,48553503748	1889,44892236993	1889,41625846407	1889,38852409269	1889,36621532312	1889,34929741602	1889,33721300729	1889,32894331735	1889,32311550431	1889,31814439388	1889,31239320699	1889,30433596419	1889,29270419758	1889,27660246658	1889,25558075655	1889,22965674011	1889,19928653833	1889,16528837724	1889,12872872700	1889,09078454313	1889,05259765620	1889,01513792957	1888,97909049754	1888,94477939811	1888,91213560109	1888,88071231459	1888,84974511151	1888,81824943514	1888,78514394438	1888,74938536880	1888,71009935431	1888,66669233594	1888,61893174696	1888,56698564925	1888,51141773775	1888,45313904914	1888,39332289206	1888,33329380382	1888,27440411732	1888,21791260390	1888,16487854512	1888,11608169806	1888,07197445478	1888,03266775853	1887,99794781204	1887,96731703035	1887,94005059985	1887,91525966044	1887,89195343289	1887,86909514121	1887,84564966300	1887,82062372574	1887,79310148174	1887,76227900408	1887,72750053978	1887,68829746885	1887,64442836289	1887,59591598664	1887,54307521351	1887,48652515109	1887,42717954462	1887,36621167081	1887,30499308242	1887,24500914624	1887,18775770107	1887,13463978850	1887,08685288674	1887,04529723221	1887,01050467289	1886,98259725763	1886,96127973226	1886,94586665534	1886,93534135431	1886,92844078860	1886,92375789778	1886,91985143895	1886,91535281743	1886,90906003606	1886,90001057323	1886,88752757334	1886,87123692040	1886,85105619533	1886,82715976073	1886,79992682952	1886,76988096637	1886,73762977395	1886,70381245031	1886,66906061420	1886,63397465609	1886,59911444827	1886,56500020103	1886,53211722830	1886,50091786470	1886,47181494697	1886,44516395486	1886,42123455102	1886,40017604140	1886,38198427676	1886,36647892717	1886,35329940157	1886,34192492457	1886,33171988132	1886,32200036162	1886,31211297461	1886,30151356024	1886,28983225273	1886,27691287248	1886,26281870454	1886,24780267525	1886,23224663611	1886,21658055857	1886,20119664193	1886,18637468466	1886,17223316496	1886,15871558641	1886,14561466682	1886,13262925823	1886,11944205137	1886,10580158484	1886,09159085558	1886,07686725428	1886,06186421364	1886,04695275392	1886,03256946742	1886,01912468598	1886,00690912453	1885,99601822256	1885,98631048025	1885,97740985778	1885,96875399048	1885,95968120701	1885,94954184079	1885,93781455349	1885,92420724324	1885,90872476209	1885,89169154145	1885,87372513515	1885,85566510007	1885,83846897802	1885,82309213505	1885,81037008838	1885,80092056877	1885,79507839970	1885,79287026715	1885,79402980471	1885,79804733383	1885,80424406909	1885,81185823067	1885,82013044914	1885,82837781107	1885,83604924901	1885,84275892429	1885,84829798888	1885,85262801381	1885,85586108007	1885,85823199851	1885,86006758231	1885,86175673997	1885,86372383702	1885,86640666744	1885,87023969309	1885,87564296652	1885,88301718573	1885,89274537167	1885,90520143816	1885,92076526229	1885,93984275115	1885,96288801712	1885,99042345446	1886,02305266155	1886,06146114674	1886,10640081325	1886,15865634261	1886,21899453851	1886,28810099091	1886,36651147451	1886,45454768217	1886,55226768820	1886,65944062400	1886,77555240937	1886,89984531961	1887,03138927488	1887,16917779399	1887,31223738255	1887,45973642691	1887,61107890641	1887,76596957781	1887,92444058655	1888,08683431122	1888,25374303066	1888,42591193530	1888,60411722944	1888,78903475819	1888,98111610079	1889,18048808995	1889,38688837196	1889,59964447358	1889,81769777012	1890,03966776688	1890,26394715637	1890,48881490373	1890,71255351741	1890,93355768015	1891,15042418627	1891,36201699119	1891,56750529002	1891,76637606813	1891,95842488214	1892,14372948245	1892,32261045290	1892,49558184556	1892,66329351742	1892,82646615693	1892,98582020741	1893,14200109665	1893,29550508201	1893,44661207224	1893,59533331498	1893,74138218461	1893,88417500127	1894,02286573368	1894,15641390292	1894,28367976051	1894,40353590902	1894,51498106240	1894,61724047631	1894,70983911890	1894,79263773189	1894,86582783156	1894,92988831747	1894,98551243617	1895,03351824012	1895,07475757839	1895,11003774759	1895,14006647281	1895,16542564303	1895,18657330153	1895,20386799819	1895,21760579787	1895,22805867759	1895,23550390551	1895,24023694480	1895,24256473860	1895,24278096441	1895,24112904006	1895,23776153019	1895,23270564966	1895,22584366224	1895,21691436219	1895,20553803594	1895,19126305541	1895,17362833506	1895,15223298739	1895,12680312498	1895,09724608064	1895,06368423200	1895,02646372571	1894,98613710853	1894,94342252730	1894,89914515313	1894,85416838079	1894,80932294889	1894,76534147575	1894,72280429104	1894,68210029950	1894,64340442423	1894,60667136295	1894,57164420896	1894,53787598506	1894,50476214947	1894,47158235687	1894,43754985664	1894,40186662608	1894,36378157695	1894,32264804931	1894,27797561448	1894,22947035854	1894,17705773062	1894,12088303409	1894,06128682388	1893,99875569032	1893,93385272187	1893,86713569175	1893,79907395777	1893,72997651161	1893,65994308889	1893,58884761247	1893,51635873312	1893,44199646920	1893,36521783958	1893,28551899058	1893,20253767581	1893,11613886972	1893,02646818450	1892,93396248635	1892,83931397827	1892,74339188089	1892,64713329849	1892,55142052811	1892,45696488488	1892,36421651390	1892,27331569352	1892,18409445675	1892,09612909915	1892,00883570870	1891,92159368475	1891,83387751957	1891,74537566583	1891,65607729959	1891,56631281164	1891,47674103414	1891,38828434622	1891,30202063887	1891,21904751764	1891,14033821794	1891,06660999577	1890,99822412099	1890,93513230190	1890,87687800657	1890,82265357246	1890,77140621891	1890,72197913149	1890,67326860987	1890,62437558962	1890,57473009682	1890,52417045349	1890,47296501185	1890,42177216049	1890,37154327138	1890,32338186667	1890,27837923357	1890,23745081656	1890,20119815966	1890,16981770720	1890,14307080373	1890,12031978664	1890,10062464442	1890,08288504869	1890,06600531120	1890,04905623193	1890,03140851780	1890,01281732378	1889,99344561096	1889,97382396485	1889,95475451897	1889,93717498641	1889,92200419170	1889,90999219699	1889,90159610915	1889,89689756330	1889,89557080810	1889,89690259860	1889,89985802947	1889,90318103794	1889,90551518007	1889,90552956982	1889,90203627853	1889,89408842550	1889,88105190860	1889,86264750027	1889,83896329333	1889,81043987567	1889,77783205001	1889,74215152329	1889,70459504547	1889,66646230853	1889,62906780352	1889,59365093932	1889,56128905779	1889,53281840251	1889,50876838955	1889,48931445196	1889,47425410370	1889,46300961628	1889,45465886709	1889,44799365323	1889,44160230043	1889,43397100426	1889,42359629533	1889,40909957058	1889,38933397173	1889,36347414148	1889,33108058321	1889,29213243168	1889,24702525872	1889,19653384366	1889,14174330720	1889,08395525583	1889,02457821067	1888,96501324088	1888,90654613712	1888,85025655402	1888,79695242226	1888,74713485400	1888,70099514221	1888,65844175081	1888,61915187132	1888,58263958715	1888,54833124296	1888,51563843037	1888,48402007689	1888,45302728926	1888,42232751935	1888,39170783340	1888,36106007416	1888,33035305691	1888,29959830570	1888,26881607201	1888,23800753384	1888,20713737716	1888,17612876398	1888,14487039545	1888,11323336988	1888,08109410773	1888,04835893166	1888,01498596067	1887,98100068652	1887,94650274406	1887,91166273529	1887,87670930767	1887,84190786424	1887,80753319654	1887,77383894071	1887,74102706107	1887,70922059134	1887,67844265368	1887,64860436937	1887,61950369875	1887,59083650659	1887,56222023196	1887,53322944127	1887,50344128059	1887,47248749253	1887,44010835751	1887,40620284787	1887,37086866109	1887,33442583613	1887,29741851714	1887,26059118467	1887,22483827349	1887,19112932569	1887,16041532012	1887,13352507532	1887,11106309021	1887,09332135773	1887,08021720964	1887,07126702029	1887,06560179662	1887,06202577046	1887,05911375791	1887,05533802702	1887,04921146196	1887,03943151443	1887,02500912874	1887,00536854245	1886,98040732498	1886,95051069581	1886,91651938334	1886,87965533282	1886,84141381360	1886,80343344913	1886,76735715447	1886,73469690733	1886,70671389823	1886,68432325784	1886,66802967362	1886,65789720874	1886,65355385931	1886,65422903269	1886,65882024406	1886,66598383474	1886,67424327602	1886,68210751994	1886,68819086617	1886,69132503416	1886,69065378707	1886,68570084555	1886,67640323685	1886,66310481653	1886,64650843841	1886,62758984424	1886,60748125209	1886,58733711437	1886,56819779478	1886,55086827243	1886,53582795465	1886,52318417071	1886,51267625921	1886,50373009951	1886,49555553778	1886,48727263475	1886,47804816200	1886,46722215508	1886,45440597656	1886,43953805054	1886,42289042921	1886,40502742018	1886,38672520043	1886,36886729282	1886,35233394214	1886,33790330275	1886,32617907384	1886,31755352353	1886,31220790067	1886,31014541203	1886,31124653507	1886,31533340495	1886,32222980972	1886,33180581170	1886,34400050718	1886,35882187958	1886,37632788272	1886,39659672168	1886,41969603565	1886,44566009034	1886,47448144691	1886,50611962629	1886,54052502487	1886,57767276980	1886,61759912219	1886,66043284353	1886,70641556146	1886,75590809084	1886,80938306624	1886,86740720716	1886,93061828873	1886,99970199219	1887,07537228463	1887,15835631223	1887,24938180383	1887,34916260274	1887,45837696233	1887,57763408518	1887,70742701064	1887,84807384602	1887,99965361917	1888,16194666965	1888,33439151873	1888,51606986982	1888,70572855314	1888,90184214345	1889,10271347482	1889,30660254580	1889,51186866595	1889,71710728155	1889,92126245688	1890,12369864743	1890,32422079526	1890,52303906191	1890,72068255445	1890,91787393400	1891,11538261720	1891,31387741502	1891,51379933083	1891,71527183806	1891,91805984079	1892,12158075987	1892,32496314567	1892,52714126913	1892,72696939797	1892,92333758700	1893,11527193884	1893,30200606249	1893,48301610062	1893,65801817075	1893,82693322233	1893,98982910026	1894,14685226340	1894,29816181468	1894,44387643577	1894,58404109144	1894,71861585323	1894,84748482114	1894,97047969637	1895,08741061334	1895,19809658394	1895,30238922040	1895,40018587638	1895,49143136544	1895,57611028953	1895,65423411137	1895,72582802160	1895,79092227485	1895,84955119987	1895,90176096487	1895,94762493034	1895,98726353344	1896,02086445788	1896,04869849649	1896,07112698779	1896,08859785816	1896,10162892323	1896,11077897440	1896,11660908403	1896,11963830072	1896,12029927558	1896,11890015967	1896,11559915209	1896,11039720355	1896,10315252395	1896,09361777938	1896,08149745445	1896,06651925497	1896,04851023967	1896,02746625452	1896,00360276826	1895,97737670758	1895,94947235261	1895,92074937325	1895,89215691557	1895,86462331627	1895,83893553565	1895,81562492385	1895,79487597304	1895,77647219064	1895,75978851820	1895,74383354548	1895,72733807348	1895,70888036147	1895,68703353128	1895,66051772715	1895,62833904864	1895,58989895669	1895,54506147773	1895,49417056195	1895,43801573591	1895,37775003462	1895,31476945365	1895,25056726785	1895,18657910540	1895,12403541182	1895,06383685824	1895,00646552065	1894,95194063101	1894,89982285388	1894,84926590511	1894,79910943669	1894,74800294681	1894,69454743377	1894,63743987645	1894,57560553316	1894,50830449031	1894,43520169868	1894,35639361603	1894,27238914415	1894,18404736514	1894,09247917856	1893,99892385175	1893,90461428716	1893,81064612549	1893,71786542437	1893,62678755071	1893,53755629931	1893,44994750906	1893,36341616081	1893,27718075665	1893,19033434209	1893,10196840073	1893,01129443192	1892,91774851746	1892,82106654328	1892,72132165656	1892,61892046680	1892,51455975699	1892,40915033780	1892,30371852892	1892,19929813602	1892,09682648546	1891,99705707952	1891,90049894233	1891,80738909791	1891,71770033551	1891,63118200926	1891,54742762201	1891,46595981136	1891,38632141497	1891,30816071113	1891,23129973179	1891,15577662523	1891,08185619939	1891,01000669694	1890,94084513646	1890,87505770331	1890,81330515068	1890,75612546896	1890,70384682183	1890,65652276450	1890,61389914162	1890,57541814307	1890,54026030353	1890,50742039827	1890,47580885684	1890,44436704506	1890,41218294866	1890,37859361430	1890,34326213025	1890,30621973276	1890,26786743962	1890,22893600354	1890,19040749249	1890,15340600956	1890,11906856897	1890,08840960253	1890,06219370552	1890,04083085858	1890,02430643463	1890,01215493228	1890,00348186534	1889,99703304387	1889,99130518492	1889,98468702319	1889,97561644545	1889,96273711961	1889,94503790311	1889,92196002813	1889,89346046049	1889,86002448648	1889,82262593100	1889,78263882338	1889,74170921037	1889,70159967226	1889,66402158081	1889,63047106634	1889,60208402786	1889,57952346967	1889,56290925045	1889,55179633900	1889,54520327530	1889,54168812072	1889,53946509699	1889,53655165660	1889,53093313871	1889,52073063131	1889,50435731175	1889,48064943865	1889,44896030337	1889,40920870482	1889,36187766302	1889,30796379494	1889,24888259884	1889,18633931941	1889,12217856907	1889,05822799543	1888,99615168821	1888,93732759899	1888,88276014462	1888,83303475993	1888,78831602804	1888,74838582266	1888,71271333077	1888,68054549256	1888,65100474180	1888,62318117558	1888,59620837880	1888,56931573885	1888,54185461816	1888,51330043507	1888,48323671868	1888,45132983872	1888,41730390427	1888,38092416624	1888,34199441538	1888,30036994644	1888,25598347751	1888,20887784777	1888,15923711372	1888,10740729022	1888,05389951768	1887,99937155588	1887,94458754972	1887,89036014154	1887,83748237892	1887,78665883161	1887,73844554202	1887,69320690921	1887,65109470480	1887,61205074550	1887,57583103043	1887,54204609505	1887,51021048341	1887,47979387389	1887,45026746660	1887,42114140209	1887,39199165431	1887,36247736274	1887,33235134596	1887,30146718594	1887,26978569531	1887,23738199340	1887,20445228731	1887,17131739179	1887,13841863887	1887,10630159808	1887,07558416662	1887,04690799190	1887,02087544173	1886,99797779107	1886,97852321073	1886,96257485133	1886,94990936394	1886,94000444479	1886,93206063570	1886,92505814601	1886,91784457647	1886,90924488006	1886,89818139064	1886,88378981540	1886,86551700884	1886,84318813370	1886,81703422058	1886,78767571214	1886,75606273999	1886,72337800783	1886,69091264812	1886,65992876812	1886,63152422167	1886,60651520753	1886,58535055681	1886,56806817469	1886,55429937876	1886,54332132675	1886,53415197102	1886,52567669603	1886,51679165266	1886,50654636816	1886,49426787421	1886,47965050426	1886,46279951975	1886,44422238599	1886,42476812510	1886,40552184817	1886,38766739287	1886,37233515264	1886,36045410449	1886,35262647486	1886,34904054403	1886,34943222619	1886,35309997449	1886,35897108145	1886,36571140952	1886,37186571394	1886,37601252391	1886,37691629258	1886,37366022352	1886,36574562440	1886,35314746063	1886,33632051426	1886,31615569090	1886,29389105785	1886,27098668732	1886,24897593497	1886,22930811695	1886,21319847066	1886,20150072213	1886,19461557301	1886,19244510993	1886,19439878246	1886,19945154429	1886,20624944062	1886,21325285158	1886,21890328697	1886,22179657249	1886,22084389385	1886,21540275967	1886,20536260545	1886,19117435477	1886,17381939250	1886,15472045474	1886,13560406750	1886,11833043046	1886,10471112053	1886,09633693193	1886,09443713802	1886,09978744292	1886,11267734772	1886,13293947675	1886,16003480067	1886,19317998357	1886,23149749767	1886,27416659078	1886,32055405540	1886,37030784114	1886,42340311143	1886,48013817997	1886,54108547777	1886,60700898028	1886,67876338934	1886,75719136295	1886,84303334998	1886,93686075396	1887,03903816853	1887,14971531572	1887,26884494199	1887,39621985641	1887,53152075865	1887,67436643224	1887,82435898667	1887,98111873006	1888,14430553287	1888,31362584716	1888,48882661513	1888,66967897577	1888,85595587503	1889,04740834183	1889,24374523411	1889,44462060325	1889,64963143557	1889,85832650678	1890,07022472200	1890,28483907540	1890,50170078233	1890,72037764899	1890,94048155195	1891,16166189942	1891,38358476169	1891,60590043381	1891,82820491767	1892,05000262020	1892,27067804354	1892,48948320135	1892,70554503387	1892,91789363462	1893,12550832772	1893,32737535433	1893,52254885995	1893,71020646386	1893,88969198132	1894,06054051465	1894,22248450880	1894,37544274720	1894,51949696223	1894,65486224653	1894,78185752700	1894,90088104945	1895,01239345738	1895,11690820507	1895,21498641383	1895,30723150632	1895,39427847988	1895,47677363482	1895,55534274986	1895,63054861914	1895,70284191179	1895,77251185762	1895,83964477721	1895,90409862050	1895,96550034126	1896,02327024371	1896,07667375719	1896,12489697950	1896,16713844919	1896,20270663058	1896,23111107389	1896,25213547125	1896,26588289903	1896,27278713844	1896,27358855102	1896,26927781632	1896,26101512196	1896,25003541622	1896,23755160079	1896,22466688883	1896,21230518273	1896,20116477073	1896,19169665174	1896,18410517724	1896,17836612012	1896,17425613786	1896,17138792566	1896,16924683961	1896,16722684014	1896,16466559367	1896,16087987948	1896,15520270846	1896,14702271205	1896,13582466324	1896,12122795776	1896,10301813871	1896,08116567972	1896,05582664960	1896,02732167852	1895,99609262400	1895,96264000162	1895,92744792679	1895,89090628371	1895,85324146501	1895,81446688842	1895,77436246980	1895,73248851195	1895,68823455969	1895,64089841229	1895,58978553482	1895,53431540959	1895,47411958371	1895,40911666732	1895,33955231183	1895,26599686835	1895,18929930624	1895,11050218942	1895,03072815056	1894,95105255118	1894,87237925251	1894,79533631145	1894,72020594637	1894,64689860589	1894,57497502701	1894,50371360508	1894,43221412814	1894,35952383141	1894,28476852983	1894,20727076672	1894,12663864256	1894,04281308046	1893,95606721875	1893,86695856221	1893,77624143408	1893,68475306189	1893,59329035866	1893,50249551823	1893,41276678133	1893,32420649588	1893,23661265337	1893,14951346239	1893,06223830931	1892,97401362087	1892,88406936260	1892,79174147613	1892,69655735666	1892,59829499980	1892,49701094733	1892,39303678025	1892,28694788337	1892,17951101219	1892,07161861956	1891,96421803328	1891,85824271702	1891,75455139628	1891,65387916719	1891,55680311759	1891,46372362405	1891,37486136101	1891,29026908552	1891,20985632536	1891,13342412541	1891,06070602821	1890,99141063749	1890,92526068531	1890,86202374391	1890,80153073493	1890,74368015040	1890,68842816063	1890,63576713521	1890,58569707331	1890,53819561462	1890,49319242306	1890,45055276297	1890,41007320908	1890,37149002656	1890,33449831658	1890,29877804184	1890,26402191591	1890,22996005680	1890,19637723043	1890,16312018573	1890,13009460983	1890,09725316333	1890,06457751460	1890,03205803994	1889,99967483685	1889,96738302444	1889,93510421906	1889,90272487255	1889,87010112509	1889,83706914650	1889,80345967838	1889,76911556757	1889,73391131406	1889,69777381934	1889,66070342554	1889,62279389369	1889,58424923343	1889,54539445416	1889,50667664858	1889,46865266942	1889,43196030593	1889,39727147029	1889,36522843601	1889,33636736253	1889,31103669364	1889,28932086265	1889,27098135990	1889,25542701435	1889,24172298035	1889,22864346715	1889,21476720591	1889,19860791326	1889,17876573193	1889,15408099956	1889,12376971481	1889,08752131370	1889,04554385031	1888,99854879692	1888,94767631483	1888,89437055434	1888,84022182309	1888,78679706206	1888,73548121083	1888,68734957622	1888,64308573725	1888,60295186981	1888,56681005441	1888,53418562582	1888,50435822533	1888,47646377355	1888,44959133616	1888,42286240903	1888,39548556376	1888,36678541154	1888,33621016728	1888,30332567503	1888,26780499518	1888,22942151217	1888,18805048430	1888,14367990159	1888,09642749127	1888,04655770015	1887,99449118987	1887,94080008096	1887,88618467723	1887,83143109159	1887,77735322623	1887,72472603820	1887,67421920543	1887,62634075863	1887,58139889329	1887,53948731379	1887,50049565745	1887,46414253009	1887,43002519899	1887,39767765916	1887,36662799802	1887,33644681129	1887,30678063365	1887,27736744944	1887,24803470984	1887,21868326061	1887,18926266394	1887,15974427148	1887,13009802069	1887,10027746433	1887,07021536782	1887,03982978358	1887,00903830385	1886,97777659647	1886,94601658653	1886,91377983755	1886,88114271266	1886,84823153564	1886,81520792011	1886,78224636609	1886,74950782996	1886,71711400053	1886,68512728053	1886,65354089483	1886,62228215442	1886,59122985489	1886,56024435420	1886,52920642206	1886,49805889376	1886,46684388801	1886,43572817656	1886,40501039692	1886,37510615661	1886,34651044484	1886,31974067747	1886,29526751094	1886,27344355003	1886,25444157939	1886,23821351010	1886,22447871864	1886,21274612848	1886,20236888560	1886,19262473656	1886,18281028577	1886,17233417021	1886,16079356337	1886,14802059345	1886,13409000959	1886,11928601544	1886,10403347533	1886,08880534297	1886,07402287921	1886,05996703691	1886,04671784272	1886,03413387484	1886,02187681837	1886,00947785339	1885,99643481166	1885,98232309042	1885,96690035999	1885,95018570731	1885,93249791200	1885,91444430826	1885,89685991473	1885,88070475787	1885,86693416319	1885,85636114604	1885,84953128188	1885,84662851454	1885,84742572496	1885,85128737986	1885,85722427584	1885,86399338252	1885,87023002088	1885,87459578283	1885,87592407190	1885,87334596144	1885,86638197219	1885,85498989066	1885,83956425893	1885,82088897652	1885,80004987793	1885,77831856877	1885,75702172951	1885,73741121913	1885,72054953619	1885,70722265744	1885,69788833148	1885,69266309544	1885,69134626574	1885,69347461876	1885,69839805197	1885,70536466334	1885,71360363105	1885,72239595022	1885,73112614175	1885,73931191291	1885,74661271966	1885,75282156161	1885,75784657094	1885,76168971414	1885,76442917694	1885,76620999752	1885,76724472268	1885,76782287497	1885,76832542932	1885,76923878913	1885,77116222185	1885,77480343239	1885,78095876557	1885,79047710298	1885,80420940976	1885,82294861576	1885,84736665333	1885,87795669246	1885,91498873010	1885,95848567386	1886,00822502628	1886,06376846228	1886,12451832875	1886,18979676016	1886,25894009174	1886,33139892075	1886,40683280272	1886,48518836002	1886,56675059430	1886,65215939622	1886,74238649880	1886,83867219108	1886,94242565905	1887,05509739359	1887,17803614122	1887,31234576196	1887,45875854831	1887,61754068079	1887,78844247320	1887,97070116212	1888,16309780169	1888,36406314413	1888,57182112376	1888,78455359230	1889,00056699383	1889,21844117400	1889,43714259337	1889,65608857740	1889,87515525563	1890,09462865964	1890,31510515106	1890,53735313294	1890,76215227096	1890,99012885892	1891,22160634378	1891,45648837067	1891,69418815802	1891,93361288817	1892,17320562593	1892,41104076329	1892,64496292336	1892,87275438003	1893,09231292805	1893,30182109709	1893,49988872396	1893,68565403651	1893,85883321657	1894,01971435955	1894,16909812385	1894,30819334974	1894,43848072546	1894,56156055520	1894,67900150038	1894,79220583200	1894,90230358545	1895,01008362359	1895,11596468507	1895,22000472354	1895,32194283906	1895,42126530255	1895,51728578876	1895,60922993186	1895,69631545846	1895,77782106397	1895,85313947984	1895,92181249680	1895,98354783582	1896,03821956912	1896,08585522199	1896,12661367667	1896,16075848873	1896,18863115367	1896,21062820680	1896,22718485541	1896,23876627348	1896,24586596294	1896,24900897615	1896,24875658034	1896,24570835299	1896,24049786191	1896,23377901395	1896,22620172495	1896,21837752884	1896,21083778369	1896,20398890610	1896,19807027166	1896,19312084726	1896,18896018247	1896,18518812093	1896,18120565119	1896,17625693542	1896,16949002099	1896,16003135413	1896,14706726431	1896,12992431689	1896,10814001922	1896,08151590250	1896,05014647862	1896,01441986622	1895,97498877272	1895,93271370352	1895,88858339296	1895,84362014669	1895,79877971821	1895,75485624654	1895,71240250429	1895,67167422432	1895,63260472361	1895,59481269766	1895,55764230501	1895,52023094709	1895,48159692631	1895,44073684003	1895,39672145281	1895,34877906693	1895,29635710779	1895,23915559696	1895,17713005241	1895,11046561103	1895,03952818036	1894,96480154615	1894,88682104517	1894,80611432697	1894,72315783962	1894,63835427108	1894,55203184758	1894,46446193029	1894,37588763413	1894,28655399508	1894,19673004315	1894,10671509744	1894,01682532946	1893,92736137373	1893,83856249124	1893,75055648348	1893,66331640325	1893,57663469419	1893,49012276852	1893,40323970272	1893,31534852727	1893,22579350673	1893,13398781512	1893,03949885332	1892,94211851222	1892,84190790194	1892,73920998041	1892,63462836283	1892,52897549812	1892,42319754630	1892,31828608277	1892,21518788274	1892,11472349422	1892,01752334144	1891,92398715155	1891,83426910493	1891,74828782462	1891,66575760716	1891,58623546029	1891,50917765541	1891,43399953635	1891,36013303059	1891,28707741352	1891,21444013270	1891,14196572522	1891,06955194868	1890,99725314617	1890,92527156769	1890,85393789783	1890,78368263423	1890,71500028248	1890,64840863120	1890,58440567399	1890,52342703643	1890,46580699562	1890,41174626893	1890,36128962063	1890,31431592438	1890,27054258891	1890,22954519508	1890,19079184215	1890,15369014995	1890,11764326594	1890,08210978956	1890,04666148539	1890,01103222479	1889,97515192374	1889,93916038322	1889,90339782763	1889,86837141174	1889,83469977308	1889,80304052628	1889,77400807261	1889,74809087454	1889,72557811061	1889,70650516739	1889,69062567884	1889,67741490937	1889,66610550357	1889,65575246706	1889,64532027755	1889,63378185272	1889,62021724589	1889,60389974892	1889,58435865554	1889,56141109021	1889,53515958347	1889,50595682118	1889,47434347289	1889,44096851675	1889,40650349741	1889,37156240414	1889,33663736541	1889,30205743673	1889,26797394866	1889,23437184603	1889,20110284757	1889,16793362580	1889,13460086507	1889,10086505486	1889,06655602108	1889,03160512366	1888,99606131504	1888,96009045606	1888,92395912587	1888,88800549008	1888,85260059599	1888,81810384530	1888,78481650604	1888,75293712080	1888,72252264582	1888,69345912538	1888,66544557760	1888,63799437990	1888,61045061165	1888,58203140817	1888,55188438933	1888,51916179021	1888,48310434194	1888,44312664795	1888,39889424593	1888,35038216286	1888,29790584771	1888,24211796175	1888,18396840700	1888,12462968967	1888,06539455049	1888,00755695922	1887,95229034253	1887,90053777357	1887,85292759423	1887,80972471339	1887,77082310039	1887,73577948749	1887,70388284541	1887,67424962718	1887,64593176048	1887,61802332420	1887,58975285308	1887,56055101895	1887,53008749650	1887,49827542125	1887,46524624360	1887,43130133657	1887,39684899772	1887,36233632138	1887,32818488286	1887,29473754266	1887,26222134513	1887,23072888447	1887,20021803627	1887,17052789641	1887,14140729570	1887,11255140562	1887,08364166299	1887,05438441660	1887,02454422721	1886,99396854484	1886,96260147755	1886,93048550171	1886,89775119315	1886,86459631494	1886,83125679683	1886,79797317992	1886,76495685409	1886,73236075643	1886,70025900413	1886,66863912425	1886,63740910862	1886,60641955827	1886,57549889671	1886,54449732977	1886,51333327683	1886,48203476680	1886,45076809493	1886,41984707021	1886,38971846600	1886,36092262575	1886,33403215500	1886,30957564977	1886,28795676766	1886,26938096281	1886,25380236414	1886,24090135042	1886,23009949914	1886,22061325651	1886,21154168994	1886,20197800619	1886,19113011559	1886,17843319628	1886,16363744518	1886,14685706451	1886,12857165423	1886,10957780600	1886,09089580751	1886,07364286785	1886,05888916793	1886,04751559983	1886,04009193752	1886,03679145350	1886,03735311799	1886,04109624239	1886,04698566585	1886,05373926019	1886,05996445340	1886,06430723668	1886,06559604155	1886,06296397810	1886,05593597709	1886,04447192671	1886,02896234152	1886,01017877215	1885,98918637807	1885,96723022701	1885,94560946778	1885,92555425296	1885,90811910081	1885,89410346848	1885,88400608440	1885,87801467158	1885,87602781087	1885,87770158052	1885,88251089662	1885,88981458134	1885,89891421636	1885,90909956668	1885,91967723647	1885,92998346527	1885,93938572096	1885,94728021891	1885,95309316378	1885,95629222064	1885,95641173491	1885,95309117484	1885,94612204512	1885,93549505983	1885,92143747083	1885,90443061568	1885,88520004873	1885,86467468677	1885,84391650947	1885,82402756598	1885,80604538766	1885,79084058629	1885,77903092340	1885,77092434723	1885,76649967633	1885,76542835735	1885,76713485784	1885,77088767370	1885,77590848176	1885,78148431493	1885,78706716813	1885,79234722335	1885,79728965573	1885,80213021614	1885,80733075358	1885,81350172119	1885,82130368941	1885,83134326402	1885,84408005877	1885,85976024168	1885,87838870007	1885,89974641103	1885,92345282379	1885,94906586962	1885,97620567306	1886,00468321096	1886,03461296110	1886,06648958040	1886,10121297383	1886,14005333327	1886,18455687921	1886,23640272699	1886,29722988572	1886,36845928466	1886,45113766507	1886,54582757306	1886,65256076450	1886,77086216529	1886,89983988780	1887,03832582158	1887,18504306476	1887,33877252646	1887,49849217190	1887,66346836918	1887,83328843281	1888,00783480332	1888,18721205267	1888,37164588289	1888,56137691199	1888,75657071066	1888,95725977466	1889,16332438982	1889,37450977721	1889,59046868680	1889,81081350098	1890,03516086865	1890,26315491447	1890,49446126847	1890,72873201482	1890,96554934968	1891,20436154950	1891,44442751433	1891,68478512109	1891,92425418836	1892,16147806217	1892,39500021549	1892,62336544336	1892,84523057930	1893,05946794356	1893,26524608689	1893,46207635282	1893,64981946150	1893,82865262947	1893,99900358422	1894,16146228396	1894,31668359413	1894,46529438700	1894,60781671322	1894,74461537435	1894,87587411208	1895,00160043500	1895,12165539963	1895,23580182236	1895,34376261175	1895,44528024006	1895,54016880746	1895,62835161548	1895,70987950141	1895,78492812481	1895,85377557176	1895,91676461038	1895,97425625335	1896,02658259269	1896,07400694688	1896,11669816139	1896,15472360197	1896,18806233108	1896,21663665916	1896,24035726139	1896,25917484109	1896,27313024663	1896,28239513762	1896,28729665113	1896,28832176335	1896,28609979528	1896,28136437496	1896,27489878930	1896,26747076284	1896,25976409816	1896,25231518518	1896,24546207638	1896,23931263351	1896,23373624896	1896,22838098662	1896,22271492508	1896,21608736141	1896,20780275576	1896,19719828642	1896,18371501359	1896,16695316379	1896,14670400258	1896,12295398946	1896,09586099853	1896,06570674674	1896,03283349052	1895,99757583609	1895,96019959336	1895,92085867440	1895,87957810973	1895,83626670123	1895,79075735205	1895,74286764937	1895,69246885704	1895,63954904058	1895,58425624524	1895,52691066990	1895,46798025555	1895,40802112831	1895,34759158458	1895,28715431453	1895,22698501189	1895,16710555054	1895,10725631573	1895,04691559347	1894,98536533688	1894,92179377580	1894,85541797198	1894,78560506840	1894,71197060001	1894,63443600772	1894,55323476576	1894,46886591645	1894,38200348672	1894,29337836556	1894,20365420446	1894,11331985382	1894,02261764705	1893,93152015866	1893,83975919034	1893,74690134122	1893,65245629929	1893,55599837939	1893,45727972813	1893,35631524811	1893,25342422306	1893,14922087963	1893,04455442072	1892,94040707732	1892,83776527837	1892,73748326645	1892,64015989438	1892,54604780685	1892,45500998113	1892,36653222281	1892,27979249003	1892,19377982854	1892,10744828195	1892,01988539737	1891,93047172051	1891,83900755858	1891,74578652456	1891,65160178373	1891,55767984879	1891,46554710543	1891,37684453087	1891,29311467777	1891,21559043789	1891,14501629331	1891,08152927521	1891,02461902230	1890,97317525418	1890,92561832236	1890,88009625634	1890,83472183409	1890,78781725902	1890,73813294825	1890,68501084683	1890,62847086520	1890,56921009927	1890,50851663311	1890,44811107528	1890,38993792968	1890,33593434009	1890,28780518493	1890,24683107147	1890,21373014291	1890,18858678946	1890,17085154190	1890,15940781602	1890,15269380539	1890,14886245625	1890,14595954547	1890,14209952787	1890,13562082834	1890,12520618861	1890,10995892885	1890,08943184404	1890,06361119531	1890,03286319651	1889,99785397428	1889,95945581614	1889,91865246729	1889,87645440414	1889,83383176743	1889,79166855904	1889,75073751112	1889,71169146540	1889,67506478892	1889,64127770365	1889,61063748913	1889,58333303494	1889,55942255557	1889,53881762315	1889,52126919674	1889,50636237983	1889,49352589938	1889,48205985978	1889,47118167111	1889,46008596897	1889,44801074861	1889,43429968078	1889,41845025643	1889,40013922793	1889,37922052788	1889,35569579251	1889,32966284098	1889,30125191262	1889,27056220347	1889,23761164389	1889,20231074209	1889,16446700263	1889,12382068388	1889,08010656603	1889,03313114515	1888,98285129773	1888,92943966166	1888,87332393029	1888,81519157606	1888,75595735601	1888,69669716462	1888,63855721618	1888,58265119401	1888,52995932645	1888,48124225166	1888,43697939454	1888,39733714048	1888,36216728773	1888,33103202705	1888,30324877750	1888,27794700775	1888,25412969179	1888,23073389782	1888,20668752163	1888,18096158299	1888,15261912583	1888,12086218175	1888,08507740461	1888,04487916134	1888,00014665229	1887,95104975381	1887,89805740330	1887,84192293893	1887,78364297693	1887,72438987822	1887,66542200351	1887,60797995723	1887,55318003446	1887,50191744522	1887,45479125177	1887,41206035834	1887,37363575462	1887,33910923486	1887,30781384184	1887,27890716241	1887,25146600560	1887,22458031716	1887,19743545241	1887,16937480472	1887,13993863960	1887,10887902754	1887,07615422897	1887,04190816218	1887,00644136692	1886,97017918746	1886,93364107283	1886,89741248639	1886,86211858833	1886,82839721030	1886,79686811350	1886,76809626649	1886,74254874226	1886,72054738391	1886,70222200662	1886,68747093279	1886,67593653855	1886,66700289507	1886,65982047998	1886,65335958158	1886,64648993770	1886,63808000968	1886,62710578643	1886,61275674621	1886,59452597907	1886,57227263896	1886,54624772563	1886,51707832821	1886,48571035999	1886,45331485293	1886,42116743555	1886,39051412808	1886,36243861740	1886,33774644874	1886,31688000944	1886,29987490886	1886,28636370533	1886,27562739995	1886,26668934160	1886,25844086132	1886,24978375753	1886,23977226587	1886,22773676827	1886,21337337711	1886,19678752425	1886,17848534405	1886,15931325137	1886,14035279765	1886,12278371775	1886,10773224137	1886,09612365737	1886,08855754105	1886,08522109852	1886,08585120091	1886,08974957666	1886,09584914072	1886,10282340443	1886,10922605540	1886,11364464005	1886,11485109109	1886,11193262708	1886,10438909901	1886,09218678651	1886,07576346471	1886,05598473865	1886,03405664761	1886,01140389909	1885,98952640959	1885,96984882407	1885,95357820496	1885,94158410783	1885,93431290959	1885,93174476383	1885,93339726379	1885,93837521077	1885,94546126754	1885,95323817944	1885,96023008372	1885,96504852880	1885,96652839523	1885,96384000944	1885,95656627151	1885,94473733181	1885,92881986831	1885,90966285936	1885,88840638610	1885,86636390889	1885,84489118342	1885,82525618254	1885,80852391461	1885,79546793059	1885,78651685041	1885,78173985972	1885,78087040300	1885,78336285733	1885,78847340758	1885,79535412915	1885,80314868892	1885,81107911709	1885,81851553902	1885,82502412444	1885,83039220507	1885,83463289433	1885,83797405982	1885,84083777597	1885,84381628914	1885,84764918443	1885,85320420388	1885,86146153905	1885,87349898098	1885,89047359567	1885,91359501135	1885,94408615274	1885,98312928819	1886,03179826065	1886,09098123810	1886,16130160197	1886,24304703886	1886,33611796705	1886,44000577308	1886,55380888175	1886,67629064279	1886,80597785198	1886,94129309817	1887,08070882500	1887,22290682438	1887,36692454751	1887,51226962111	1887,65898646889	1887,80766377611	1887,95937817674	1888,11557720582	1888,27791231268	1888,44803959475	1888,62741095185	1888,81708077875	1889,01755255338	1889,22868555917	1889,44967480885	1889,67910785300	1889,91509185252	1890,15543462032	1890,39785581920	1890,64020035719	1890,88062594145	1891,11774078605	1891,35067501684	1891,57907920650	1891,80305413416	1892,02302557605	1892,23958513268	1892,45332168727	1892,66466766466	1892,87378017459	1893,08047037399	1893,28418634086	1893,48404684928	1893,67891688012	1893,86751131188	1894,04851135927	1894,22067886564	1894,38295603613	1894,53454188886	1894,67494077197	1894,80398199519	1894,92181245067	1895,02886588221	1895,12581335850	1895,21349986654	1895,29287214331	1895,36490314505	1895,43051893313	1895,49053404553	1895,54560132027	1895,59618134975	1895,64253510883	1895,68474085094	1895,72273336327	1895,75636055697	1895,78544968345	1895,80987374298	1895,82960828158	1895,84476991908	1895,85563050099	1895,86260434469	1895,86621009515	1895,86701258360	1895,86555319668	1895,86227915382	1895,85748248433	1895,85125833996	1895,84348972688	1895,83386213416	1895,82190735605	1895,80707162422	1895,78879956939	1895,76662304322	1895,74024282701	1895,70959190199	1895,67487118165	1895,63655209923	1895,59534470998	1895,55213440962	1895,50789438168	1895,46358394079	1895,42004466467	1895,37790642675	1895,33751418557	1895,29888387893	1895,26169237501	1895,22530259714	1895,18882112075	1895,15118215273	1895,11124917038	1895,06792384569	1895,02025133484	1894,96751159633	1894,90928803526	1894,84550727349	1894,77644693056	1894,70271160904	1894,62518041866	1894,54493198191	1894,46315465868	1894,38105055381	1894,29974171668	1894,22018593924	1894,14310795613	1894,06894997420	1893,99784364192	1893,92960407848	1893,86374554339	1893,79951768938	1893,73596089185	1893,67197858999	1893,60642364049	1893,53819424765	1893,46633318557	1893,39012208993	1893,30916106650	1893,22342330986	1893,13327535121	1893,03945625486	1892,94301352851	1892,84519927538	1892,74733638703	1892,65067026487	1892,55622550036	1892,46468814162	1892,37633204273	1892,29100233188	1892,20816088597	1892,12698907330	1892,04653351960	1891,96587297550	1891,88428003032	1891,80135143792	1891,71708545899	1891,63189327603	1891,54654277678	1891,46204481337	1891,37950220824	1891,29994831865	1891,22420358192	1891,15277478343	1891,08581349524	1891,02313880787	1890,96431730551	1890,90878257440	1890,85596945812	1890,80543615439	1890,75695047252	1890,71052444845	1890,66639240576	1890,62493920021	1890,58659539355	1890,55172243311	1890,52051232285	1890,49292256084	1890,46865916737	1890,44721019038	1890,42792139968	1890,41009723034	1890,39310519997	1890,37646195509	1890,35988370783	1890,34329201464	1890,32677577813	1890,31051983862	1890,29471752312	1890,27948757573	1890,26481443117	1890,25052522301	1890,23630852866	1890,22177050636	1890,20651580557	1890,19023518157	1890,17278022980	1890,15420831900	1890,13478699861	1890,11495551139	1890,09524977299	1890,07620448753	1890,05825051426	1890,04162639269	1890,02632005417	1890,01205091606	1889,99829503659	1889,98434833211	1889,96941648845	1889,95271625027	1889,93357181367	1889,91149202507	1889,88621839086	1889,85773952583	1889,82627345789	1889,79222409592	1889,75612137946	1889,71855579325	1889,68011710718	1889,64134482085	1889,60269452008	1889,56452093675	1889,52707561171	1889,49051515588	1889,45491537527	1889,42028688728	1889,38658900978	1889,35374024466	1889,32162519640	1889,29009894541	1889,25899055534	1889,22810749510	1889,19724238517	1889,16618279213	1889,13472398983	1889,10268386048	1889,06991856095	1889,03633729865	1889,00191454586	1888,96669821554	1888,93081264048	1888,89445556414	1888,85788871594	1888,82142189842	1888,78539087998	1888,75012980357	1888,71593932388	1888,68305228568	1888,65159943312	1888,62157832161	1888,59282916707	1888,56502163864	1888,53765639198	1888,51008428812	1888,48154467455	1888,45122188049	1888,41831642209	1888,38212469816	1888,34211865904	1888,29801554790	1888,24982776620	1888,19788444724	1888,14281942000	1888,08552458994	1888,02707274885	1887,96861863792	1887,91129085324	1887,85608913985	1887,80380128646	1887,75495112651	1887,70978441916	1887,66829336606	1887,63027421837	1887,59540694254	1887,56334224252	1887,53378009200	1887,50652559073	1887,48151219284	1887,45878843606	1887,43847113939	1887,42067437647	1887,40542820513	1887,39260328882	1887,38185680996	1887,37261161477	1887,36407499484	1887,35529689526	1887,34526078009	1887,33299495799	1887,31768870606	1887,29879650061	1887,27611513480	1887,24982216265	1887,22046935145	1887,18893087068	1887,15631196431	1887,12382907088	1887,09267613238	1887,06389371909	1887,03825736539	1887,01619917308	1886,99777254873	1886,98266438601	1886,97025275529	1886,95970202046	1886,95008210183	1886,94049510857	1886,93019136144	1886,91865821832	1886,90566904304	1886,89128566207	1886,87581490236	1886,85972718524	1886,84355144507	1886,82776472472	1886,81269586761	1886,79846046997	1886,78493895270	1886,77180211032	1886,75858007667	1886,74476280804	1886,72991434407	1886,71378034101	1886,69636919577	1886,67799134753	1886,65924828364	1886,64097114120	1886,62411712178	1886,60963881435	1886,59834585810	1886,59077956202	1886,58711908033	1886,58713298641	1886,59018345252	1886,59528280815	1886,60119512498	1886,60656963326	1886,61008892314	1886,61061341055	1886,60730449872	1886,59971199208	1886,58781612896	1886,57202044177	1886,55309779254	1886,53209762441	1886,51022703713	1886,48872119214	1886,46871943244	1886,45116225868	1886,43672109906	1886,42576807018	1886,41838728939	1886,41442355010	1886,41355912914	1886,41540589768	1886,41959828699	1886,42587325514	1886,43412609097	1886,44443521900	1886,45705440151	1886,47237599933	1886,49087339566	1886,51303362085	1886,53929223913	1886,56998160988	1886,60530097692	1886,64531298568	1886,68996683877	1886,73914406817	1886,79271944728	1886,85062735973	1886,91292325178	1886,97983065637	1887,05176648989	1887,12934048780	1887,21332822956	1887,30462064304	1887,40415568382	1887,51283972789	1887,63146697467	1887,76064490481	1887,90073279290	1888,05179873038	1888,21359886087	1888,38558079071	1888,56691152221	1888,75652874273	1888,95321275727	1889,15567462020	1889,36265403431	1889,57301848164	1889,78585321539	1890,00053075161	1890,21674894876	1890,43452905587	1890,65416928326	1890,87615510243	1891,10103383143	1891,32926709406	1891,56107940018	1891,79632346150	1892,03438231928	1892,27412472741	1892,51392383186	1892,75174086021	1892,98526654097	1893,21210476293	1893,42997690371	1893,63692226033	1893,83147049122	1894,01276571607	1894,18062821041	1894,33554745800	1894,47860855177	1894,61136148794	1894,73564889083	1894,85341153765	1894,96649246165	1895,07645947953	1895,18446307118	1895,29114216400	1895,39658510952	1895,50034751865	1895,60152310003	1895,69885863456	1895,79090011020	1895,87615421775	1895,95324819900	1896,02107164035	1896,07888620800	1896,12639326498	1896,16375431120	1896,19156459899	1896,21078540151	1896,22264461097	1896,22851813698	1896,22980570861	1896,22781415529	1896,22365928499	1896,21819449565	1896,21197073404	1896,20522882710	1896,19792194200	1896,18976324875	1896,18029191007	1896,16894937030	1896,15515756782	1896,13839113968	1896,11823687931	1896,09443555415	1896,06690351978	1896,03573411991	1896,00118130399	1895,96362987039	1895,92355794458	1895,88149753851	1895,83799829029	1895,79359791814	1895,74880086614	1895,70406450085	1895,65979048558	1895,61631799019	1895,57391541032	1895,53276827975	1895,49296284308	1895,45446689876	1895,41711150305	1895,38057842737	1895,34439849789	1895,30796494772	1895,27056377870	1895,23142021437	1895,18975717728	1895,14485898273	1895,09613171725	1895,04315151585	1894,98569335281	1894,92373587601	1894,85744177312	1894,78711743731	1894,71315945915	1894,63599792325	1894,55604706661	1894,47367234257	1894,38917952116	1894,30282673367	1894,21485523326	1894,12553014448	1894,03517961355	1893,94422027947	1893,85315914583	1893,76256647336	1893,67302043032	1893,58503074336	1893,49895414697	1893,41491782855	1893,33276747467	1893,25205366084	1893,17206452493	1893,09190484109	1893,01061311972	1892,92730077076	1892,84129217537	1892,75224283735	1892,66021512698	1892,56569722688	1892,46955975097	1892,37295459720	1892,27717013705	1892,18346416566	1892,09289987533	1892,00620983218	1891,92370860268	1891,84526704272	1891,77035160910	1891,69812197866	1891,62757139914	1891,55768794969	1891,48761219373	1891,41676788982	1891,34494717947	1891,27233913145	1891,19949943779	1891,12726800211	1891,05664876004	1890,98867120212	1890,92425502998	1890,86409797477	1890,80860238203	1890,75784951566	1890,71162276457	1890,66947328313	1890,63081522787	1890,59503359400	1890,56158627845	1890,53008354341	1890,50033223210	1890,47233820571	1890,44626754021	1890,42237390473	1890,40090513385	1890,38200541402	1890,36563020725	1890,35148896792	1890,33902625995	1890,32744581990	1890,31577543446	1890,30296426483	1890,28799939216	1890,27002555391	1890,24845161676	1890,22302924149	1890,19389305432	1890,16155682167	1890,12686586812	1890,09091150858	1890,05491789398	1890,02011486303	1889,98761181457	1889,95828714770	1889,93270556228	1889,91107177733	1889,89322449143	1889,87866928353	1889,86664429655	1889,85620860125	1889,84634063963	1889,83603345526	1889,82437465185	1889,81060202693	1889,79413017254	1889,77454834975	1889,75159480929	1889,72511660437	1889,69502611250	1889,66126551193	1889,62378828518	1889,58256280522	1889,53759793000	1889,48898527375	1889,43694849252	1889,38188743244	1889,32440491962	1889,26530642677	1889,20556742535	1889,14626907467	1889,08850889400	1889,03329806046	1888,98146002417	1888,93354566878	1888,88977818046	1888,85003650158	1888,81388048958	1888,78061465657	1888,74938165526	1888,71927240314	1888,68943752724	1888,65918493545	1888,62805065559	1888,59583417498	1888,56259466779	1888,52860992911	1888,49430479031	1888,46015965653	1888,42661216789	1888,39396563753	1888,36231686439	1888,33151333352	1888,30114602741	1888,27057951413	1888,23901616839	1888,20558687649	1888,16945692788	1888,12993350513	1888,08656062631	1888,03918875856	1887,98800953710	1887,93355072845	1887,87663212702	1887,81828863063	1887,75967140182	1887,70194099379	1887,64616707744	1887,59324779876	1887,54385809462	1887,49843114398	1887,45717144716	1887,42009283247	1887,38707093306	1887,35789804542	1887,33232905388	1887,31011008515	1887,29098609572	1887,27468871905	1887,26091032115	1887,24927336293	1887,23930520809	1887,23042727690	1887,22196425339	1887,21317464658	1887,20329936810	1887,19162112378	1887,17752513409	1887,16055143421	1887,14043074378	1887,11709918291	1887,09069117279	1887,06151378194	1887,03000872258	1886,99670957696	1886,96220142713	1886,92708807331	1886,89196901363	1886,85742511165	1886,82400923697	1886,79223682097	1886,76257159778	1886,73540375132	1886,71102078773	1886,68957489554	1886,67105340860	1886,65526040673	1886,64181694820	1886,63018485332	1886,61971476914	1886,60971427489	1886,59952711140	1886,58861131582	1886,57660296810	1886,56335382595	1886,54893521319	1886,53360645406	1886,51775279630	1886,50180380004	1886,48614730430	1886,47105536407	1886,45663657879	1886,44282426971	1886,42940290701	1886,41606741248	1886,40250304680	1886,38846899103	1886,37386747849	1886,35878279141	1886,34348021454	1886,32836304398	1886,31389441021	1886,30049824917	1886,28845869771	1886,27783846039	1886,26843397488	1886,25977895498	1886,25119926309	1886,24191266340	1886,23115858209	1886,21833710479	1886,20313414239	1886,18561138719	1886,16624503110	1886,14590525774	1886,12577785719	1886,10723839009	1886,09169671132	1886,08043425920	1886,07445771374	1886,07439035269	1886,08041710450	1886,09229173224	1886,10940586428	1886,13091091409	1886,15587646878	1886,18346346857	1886,21308815590	1886,24455367892	1886,27813030714	1886,31457195775	1886,35506527731	1886,40111675025	1886,45439196260	1886,51652802455	1886,58894424097	1886,67267676896	1886,76826004219	1886,87567152761	1886,99434775692	1887,12326975806	1887,26110639933	1887,40639610844	1887,55774206426	1887,71399402141	1887,87439169293	1888,03864987436	1888,20697355933	1888,38000108169	1888,55868343917	1888,74411692072	1888,93735262523	1889,13920945280	1889,35011626946	1889,57000441435	1889,79826431826	1890,03377090127	1890,27497295966	1890,52003325717	1890,76699963203	1891,01398392655	1891,25932532127	1891,50171761391	1891,74028556181	1891,97460268866	1892,20465085234	1892,43072931025	1892,65332711365	1892,87297677207	1893,09010888174	1893,30492668577	1893,51731646448	1893,72680464564	1893,93256624012	1894,13348250763	1894,32823955272	1894,51545465154	1894,69381407704	1894,86220528498	1895,01982751941	1895,16626794721	1895,30153492546	1895,42604540991	1895,54056919254	1895,64613792012	1895,74393102068	1895,83515320218	1895,92091875925	1896,00215648464	1896,07954577157	1896,15348999066	1896,22412807380	1896,29138014798	1896,35501872375	1896,41475392288	1896,47031989298	1896,52155001051	1896,56843056006	1896,61112591590	1896,64997232602	1896,68544165308	1896,71808035011	1896,74843212445	1896,77695486606	1896,80394329606	1896,82946834718	1896,85334255547	1896,87511787279	1896,89411857502	1896,90950771493	1896,92038130373	1896,92588059070	1896,92530992070	1896,91824609525	1896,90462522722	1896,88479487128	1896,85952262865	1896,82995713894	1896,79754286078	1896,76389564654	1896,73065112656	1896,69930168261	1896,67103980197	1896,64662557536	1896,62629399811	1896,60971376761	1896,59600387462	1896,58380805707	1896,57142081692	1896,55695290912	1896,53851965583	1896,51443264577	1896,48337467982	1896,44453931727	1896,39771991164	1896,34333822568	1896,28240902149	1896,21644375633	1896,14730295012	1896,07701222821	1896,00756089030	1895,94070369090	1895,87778614479	1895,81961114325	1895,76636027273	1895,71757745135	1895,67221596058	1895,62874334106	1895,58529264382	1895,53984382377	1895,49041615663	1895,43525178331	1895,37297192535	1895,30269077774	1895,22407712198	1895,13735966275	1895,04327822925	1894,94298856245	1894,83793280874	1894,72969062938	1894,61982681547	1894,50975052519	1894,40059900496	1894,29315535111	1894,18780600746	1894,08453973446	1893,98298607920	1893,88248814058	1893,78220177769	1893,68121142071	1893,57865138562	1893,47382115528	1893,36628355615	1893,25593616768	1893,14304860732	1893,02826139812	1892,91254572289	1892,79712720533	1892,68338058255	1892,57270535986	1892,46639487119	1892,36551226447	1892,27078656638	1892,18254011505	1892,10065545402	1892,02458561814	1891,95340710514	1891,88591025983	1891,82071782389	1891,75641946474	1891,69170850581	1891,62550699681	1891,55706666444	1891,48603597835	1891,41248721533	1891,33690157910	1891,26011468290	1891,18322860508	1891,10749992704	1891,03421537558	1890,96456771891	1890,89954430262	1890,83983906895	1890,78579622635	1890,73739020806	1890,69424257532	1890,65567254116	1890,62077427969	1890,58851154725	1890,55781867663	1890,52769686497	1890,49729584757	1890,46597334486	1890,43332775103	1890,39920295810	1890,36366750332	1890,32697296329	1890,28949838147	1890,25168834939	1890,21399217288	1890,17681049419	1890,14045406048	1890,10511733532	1890,07086764720	1890,03764881878	1890,00529690228	1889,97356484088	1889,94215257315	1889,91073921384	1889,87901436195	1889,84670618179	1889,81360456309	1889,77957830329	1889,74458580111	1889,70867915835	1889,67200183845	1889,63478013921	1889,59730875289	1889,55993068699	1889,52301189095	1889,48691115805	1889,45194629781	1889,41835821040	1889,38627529432	1889,35568147220	1889,32639185578	1889,29804046806	1889,27008426272	1889,24182673435	1889,21246260693	1889,18114249534	1889,14705331786	1889,10950703588	1889,06802757728	1889,02242415758	1888,97283916718	1888,91976065858	1888,86399326155	1888,80658672747	1888,74872755776	1888,69160533267	1888,63627034523	1888,58350197252	1888,53370719075	1888,48686552355	1888,44253079418	1888,39989212638	1888,35788789032	1888,31535810599	1888,27121455236	1888,22460457498	1888,17504494917	1888,12250615243	1888,06743442023	1888,01070788319	1887,95353248735	1887,89729181920	1887,84337115165	1887,79297917134	1887,74699063701	1887,70582986884	1887,66940912947	1887,63712857632	1887,60793661402	1887,58044219531	1887,55306477141	1887,52420377517	1887,49240802254	1887,45652623166	1887,41582273018	1887,37004690615	1887,31945048871	1887,26475268358	1887,20705887883	1887,14774346094	1887,08831072395	1887,03024956279	1886,97489747507	1886,92332744468	1886,87626785622	1886,83406118459	1886,79666242533	1886,76367372502	1886,73440802831	1886,70797222592	1886,68335948693	1886,65954114160	1886,63555033769	1886,61055221964	1886,58389799202	1886,55516239432	1886,52416547315	1886,49097997495	1886,45592534020	1886,41954851464	1886,38259107459	1886,34594195299	1886,31057567639	1886,27747756864	1886,24755964939	1886,22157350280	1886,20002859474	1886,18312574240	1886,17071519604	1886,16228686398	1886,15699673091	1886,15372895989	1886,15118826098	1886,14801270360	1886,14289404670	1886,13469145145	1886,12252538649	1886,10584150249	1886,08443873631	1886,05846111712	1886,02835777045	1885,99481958165	1885,95870323582	1885,92095358664	1885,88253361075	1885,84436804473	1885,80730292579	1885,77207954290	1885,73931857121	1885,70950899169	1885,68299699897	1885,65997225281	1885,64045192583	1885,62426618781	1885,61105114576	1885,60025610129	1885,59117091464	1885,58297634832	1885,57481601403	1885,56588381768	1885,55551660170	1885,54327898251	1885,52902687384	1885,51293815701	1885,49550320112	1885,47747378554	1885,45977543554	1885,44339411382	1885,42925256314	1885,41809359738	1885,41038694044	1885,40627293466	1885,40555113967	1885,40771539031	1885,41203030968	1885,41763858262	1885,42368430362	1885,42943593350	1885,43439298292	1885,43836328870	1885,44150216981	1885,44431015869	1885,44759162889	1885,45238172356	1885,45985287559	1885,47121440944	1885,48761895364	1885,51008765056	1885,53946267249	1885,57639084368	1885,62133694190	1885,67462034256	1885,73646489878	1885,80704998911	1885,88655089019	1885,97515904819	1886,07307704155	1886,18048832682	1886,29750730142	1886,42411981129	1886,56012709880	1886,70510672402	1886,85840199393	1887,01914714741	1887,18632965141	1887,35888445764	1887,53580906910	1887,71628379475	1887,89977938235	1888,08613468726	1888,27559013676	1888,46876810121	1888,66659820817	1888,87019322606	1889,08068835631	1889,29906254392	1889,52596383285	1889,76156126445	1890,00544320501	1890,25657664024	1890,51333464119	1890,77359090007	1891,03487204636	1891,29455141916	1891,55006295740	1891,79911148897	1892,03985623596	1892,27104769668	1892,49210370914	1892,70311762323	1892,90479912739	1893,09835544277	1893,28532654804	1893,46739232651	1893,64617177966	1893,82303467467	1893,99894429344	1894,17434655844	1894,34911607704	1894,52256400954	1894,69350661119	1894,86038730885	1895,02143970578	1895,17487440804	1895,31906948836	1895,45274321459	1895,57508878070	1895,68585441821	1895,78535833965	1895,87443595221	1895,95432572853	1896,02650876698	1896,09252402810	1896,15378524762	1896,21142572145	1896,26619323805	1896,31840979024	1896,36800041721	1896,41458424724	1896,45761046831	1896,49651442031	1896,53086572242	1896,56048202195	1896,58548836962	1896,60631228674	1896,62361648689	1896,63818277562	1896,65076973723	1896,66197172730	1896,67210647978	1896,68115331603	1896,68875447934	1896,69428027949	1896,69694675270	1896,69596470183	1896,69069314876	1896,68076950049	1896,66619319435	1896,64734832542	1896,62496202433	1896,60000693651	1896,57356583333	1896,54668237379	1896,52022333038	1896,49477415319	1896,47058246872	1896,44755460819	1896,42530051159	1896,40321427069	1896,38057262128	1896,35663260357	1896,33071227130	1896,30224387213	1896,27079594353	1896,23606767462	1896,19786424253	1896,15606465569	1896,11059356418	1896,06140580784	1896,00848798148	1895,95187613161	1895,89168404681	1895,82813344772	1895,76157631880	1895,69250076541	1895,62151478219	1895,54930649657	1895,47658395435	1895,40400150864	1895,33208268996	1895,26115065162	1895,19127676161	1895,12225577339	1895,05361260115	1894,98464156210	1894,91447462660	1894,84217133825	1894,76682014397	1894,68763927304	1894,60406519490	1894,51581804924	1894,42293608780	1894,32577477101	1894,22497029887	1894,12137154241	1894,01594808265	1893,90968491399	1893,80347599038	1893,69802900526	1893,59379259227	1893,49091465892	1893,38923709439	1893,28832798699	1893,18754817780	1893,08614493450	1892,98336222758	1892,87855494568	1892,77129368798	1892,66144762579	1892,54923523826	1892,43523622353	1892,32036216792	1892,20578815404	1892,09285191301	1891,98293089747	1891,87731033626	1891,77705658625	1891,68290973251	1891,59520741101	1891,51384846156	1891,43830066596	1891,36765201432	1891,30070023214	1891,23607122453	1891,17235409089	1891,10823874368	1891,04264207782	1890,97481005583	1890,90438579676	1890,83143744134	1890,75644378113	1890,68023993080	1890,60392926571	1890,52877108138	1890,45605567152	1890,38697956515	1890,32253340506	1890,26341339922	1890,20996458212	1890,16216057031	1890,11962048543	1890,08165971371	1890,04736763958	1890,01570283992	1889,98559475273	1889,95604069050	1889,92618823472	1889,89539533597	1889,86326351121	1889,82964293902	1889,79461153272	1889,75843280319	1889,72149920309	1889,68426852566	1889,64720082643	1889,61070239523	1889,57508177118	1889,54052094873	1889,50706304449	1889,47461600327	1889,44297055886	1889,41182967898	1889,38084608599	1889,34966408307	1889,31796175433	1889,28548960142	1889,25210183295	1889,21777687873	1889,18262432648	1889,14687643033	1889,11086364506	1889,07497526578	1889,03960809592	1889,00510794330	1888,97171039407	1888,93948842877	1888,90831471747	1888,87784562435	1888,84753196847	1888,81665852079	1888,78441037381	1888,74996019803	1888,71256663034	1888,67167129158	1888,62698079687	1888,57852099161	1888,52665360434	1888,47205027076	1888,41562481348	1888,35843084976	1888,30153722749	1888,24589752129	1888,19223118372	1888,14093266921	1888,09202110128	1888,04513743060	1887,99958942866	1887,95443833040	1887,90861548957	1887,86105384342	1887,81081774268	1887,75721581914	1887,69988466502	1887,63883552247	1887,57446112497	1887,50750451877	1887,43899551137	1887,37016297641	1887,30233248792	1887,23681879274	1887,17482175817	1887,11733303582	1887,06505913595	1887,01836518346	1886,97724244984	1886,94130177374	1886,90979401862	1886,88165754315	1886,85559110206	1886,83014861282	1886,80384994894	1886,77529965238	1886,74330360201	1886,70697266086	1886,66580250922	1886,61972045278	1886,56909294974	1886,51469165884	1886,45762047832	1886,39921068066	1886,34089516801	1886,28407547770	1886,22999604658	1886,17963924595	1886,13365195320	1886,09231031713	1886,05552448302	1886,02288006647	1885,99370880999	1885,96717773310	1885,94238460927	1885,91844791448	1885,89458134401	1885,87014617994	1885,84467863184	1885,81789312662	1885,78966580353	1885,76000473120	1885,72901436087	1885,69686142946	1885,66374809376	1885,62989582944	1885,59554097730	1885,56094020309	1885,52638196172	1885,49219864863	1885,45877369640	1885,42653852314	1885,39595591335	1885,36748891661	1885,34155734364	1885,31848695084	1885,29845888117	1885,28146832486	1885,26730124744	1885,25553620341	1885,24557482169	1885,23669995999	1885,22815552165	1885,21923742899	1885,20938218584	1885,19823859109	1885,18570988357	1885,17195782409	1885,15736635910	1885,14246952662	1885,12785486074	1885,11405841419	1885,10146959729	1885,09026277025	1885,08036800935	1885,07148644138	1885,06314728655	1885,05479585423	1885,04589576834	1885,03602589463	1885,02495342865	1885,01266924940	1884,99937906891	1884,98545264694	1884,97134164100	1884,95748285268	1884,94420646761	1884,93166780777	1884,91981635967	1884,90840838795	1884,89706079952	1884,88533581664	1884,87284004101	1884,85931878443	1884,84472757326	1884,82926721952	1884,81337583898	1884,79767927286	1884,78290896915	1884,76980209588	1884,75900151486	1884,75097285815	1884,74595256565	1884,74393513998	1884,74470118154	1884,74788121198	1884,75304497342	1884,75980256978	1884,76790282832	1884,77731549108	1884,78828682705	1884,80136230266	1884,81737433203	1884,83739722624	1884,86267484038	1884,89452886603	1884,93425719505	1884,98303235298	1885,04180975592	1885,11125455721	1885,19169416937	1885,28310123476	1885,38510898910	1885,49705781650	1885,61806862186	1885,74713579792	1885,88323040324	1886,02540300699	1886,17287569667	1886,32511401639	1886,48187193980	1886,64320603005	1886,80945823046	1886,98120978967	1887,15921129471	1887,34429549799	1887,53728060408	1887,73887206308	1887,94957083817	1888,16959562963	1888,39882561026	1888,63676878684	1888,88255913051	1889,13498320744	1889,39253440315	1889,65349026057	1889,91600625719	1890,17821782486	1890,43834179417	1890,69476885193	1890,94614000080	1891,19140217353	1891,42984066297	1891,66108837042	1891,88511360173	1892,10218902357	1892,31284450595	1892,51780626050	1892,71792440467	1892,91409125443	1893,10715349137	1893,29782281853	1893,48659151162	1893,67366090001	1893,85889169609	1894,04178468681	1894,22149823812	1894,39690529149	1894,56668741771	1894,72945781624	1894,88389997029	1895,02890509299	1895,16369039382	1895,28788196300	1895,40155054717	1895,50519497510	1895,59967540490	1895,68610566271	1895,76571955609	1895,83972928705	1895,90919451102	1895,97491824876	1896,03738129595	1896,09672088084	1896,15275313089	1896,20503339309	1896,25294432971	1896,29579935830	1896,33294846007	1896,36387441779	1896,38826977777	1896,40608781669	1896,41756410143	1896,42320847834	1896,42377021004	1896,42018126735	1896,41348434317	1896,40475293877	1896,39501091849	1896,38515834420	1896,37590933972	1896,36774636590	1896,36089376688	1896,35531190193	1896,35071168787	1896,34658799126	1896,34226904994	1896,33697799405	1896,32990161665	1896,32026088563	1896,30737738292	1896,29073000443	1896,26999692417	1896,24507903041	1896,21610271177	1896,18340184978	1896,14748094459	1896,10896321085	1896,06852900046	1896,02685085486	1895,98453175733	1895,94205271847	1895,89973473658	1895,85771854166	1895,81596352560	1895,77426509017	1895,73228754541	1895,68960790625	1895,64576468993	1895,60030529080	1895,55282581678	1895,50299843381	1895,45058319437	1895,39542380967	1895,33742952429	1895,27654773351	1895,21273377813	1895,14592505305	1895,07602592330	1895,00290794695	1894,92642682289	1894,84645382592	1894,76291594528	1894,67583623827	1894,58536469489	1894,49179060423	1894,39553010449	1894,29708697248	1894,19699005945	1894,09571611737	1893,99361097903	1893,89082417761	1893,78727147174	1893,68263623385	1893,57641466947	1893,46800227642	1893,35681110896	1893,24240072539	1893,12460151993	1893,00360847100	1892,88002659479	1892,75485626902	1892,62941605067	1892,50521105111	1892,38376447872	1892,26643684876	1892,15426029110	1892,04781377091	1891,94715910584	1891,85184840075	1891,76100248040	1891,67344892410	1891,58789920406	1891,50313867104	1891,41820158998	1891,33250624011	1891,24593165436	1891,15882667991	1891,07195214826	1890,98636644939	1890,90327232980	1890,82384731482	1890,74908134067	1890,67964304952	1890,61579128578	1890,55734150950	1890,50368917279	1890,45388466464	1890,40674816113	1890,36100832009	1890,31544662572	1890,26902941236	1890,22101199905	1890,17100355027	1890,11898667811	1890,06529173233	1890,01053144884	1889,95550641963	1889,90109509857	1889,84814335183	1889,79736775477	1889,74928408464	1889,70416820102	1889,66205141591	1889,62274733055	1889,58590276160	1889,55106246527	1889,51773631143	1889,48545844076	1889,45383048719	1889,42254460469	1889,39138606950	1889,36021889000	1889,32896052316	1889,29755308506	1889,26593824526	1889,23404147742	1889,20176887977	1889,16901688429	1889,13569237793	1889,10173853548	1889,06716035318	1889,03204364634	1888,99656213117	1888,96096899755	1888,92557183246	1888,89069253484	1888,85661659436	1888,82353839997	1888,79151073016	1888,76040695388	1888,72990355273	1888,69948834680	1888,66849645939	1888,63617198851	1888,60174914367	1888,56454293441	1888,52403704584	1888,47995586725	1888,43230906749	1888,38140060839	1888,32779923011	1888,27227344878	1888,21569994539	1888,15895881105	1888,10283152566	1888,04791723303	1887,99457978527	1887,94293265439	1887,89286210415	1887,84408223277	1887,79620995024	1887,74884475499	1887,70163799590	1887,65433921497	1887,60681258359	1887,55902323670	1887,51100001916	1887,46278632198	1887,41439315470	1887,36576780524	1887,31678752257	1887,26728145709	1887,21707696340	1887,16605990562	1887,11423429386	1887,06176547967	1887,00899362535	1886,95640983195	1886,90459504299	1886,85413002816	1886,80549164916	1886,75895470845	1886,71451903462	1886,67187788051	1886,63043681311	1886,58938334321	1886,54779827629	1886,50479194032	1886,45964356449	1886,41192107533	1886,36156162131	1886,30889962863	1886,25463788143	1886,19976638387	1886,14544193460	1886,09284704650	1886,04304922438	1885,99688046593	1885,95485260254	1885,91711767827	1885,88347520345	1885,85342110443	1885,82622763994	1885,80104023400	1885,77697639626	1885,75321350684	1885,72905569092	1885,70397451204	1885,67762291155	1885,64982593872	1885,62055477546	1885,58989204659	1885,55799637630	1885,52507279669	1885,49135330180	1885,45708903872	1885,42255282461	1885,38804831987	1885,35392062441	1885,32056252436	1885,28841119204	1885,25793178051	1885,22958685169	1885,20379358330	1885,18087373315	1885,16100384081	1885,14417456500	1885,13016795872	1885,11855967099	1885,10874964583	1885,10002031385	1885,09161628127	1885,08283503564	1885,07311513735	1885,06210750460	1885,04971712273	1885,03610673526	1885,02166020975	1885,00691028216	1884,99244197214	1884,97878781560	1884,96633312750	1884,95524822857	1884,94546002759	1884,93666828847	1884,92840361439	1884,92011623738	1884,91127869393	1884,90148264069	1884,89051106385	1884,87837184280	1884,86528617257	1884,85163426223	1884,83786924427	1884,82441665066	1884,81157984643	1884,79947084931	1884,78798118567	1884,77679977144	1884,76547574677	1884,75351547423	1884,74049617909	1884,72617520768	1884,71057421199	1884,69402161514	1884,67714367652	1884,66080306727	1884,64599256965	1884,63369887199	1884,62475630532	1884,61971210012	1884,61872322233	1884,62150047301	1884,62730908874	1884,63502756778	1884,64325892649	1884,65048201623	1884,65522564938	1884,65624557039	1884,65268395980	1884,64419311230	1884,63100889692	1884,61396512511	1884,59444642350	1884,57428394804	1884,55560456688	1884,54064929240	1884,53158017114	1884,53029613466	1884,53827729954	1884,55647397856	1884,58525159662	1884,62439639639	1884,67318003128	1884,73047470101	1884,79490515791	1884,86502031751	1884,93946571338	1885,01713872548	1885,09731116593	1885,17970797254	1885,26453583498	1885,35246093014	1885,44454001234	1885,54211346303	1885,64667226311	1885,75971301131	1885,88259593536	1886,01642022110	1886,16192889063	1886,31945200049	1886,48889241462	1886,66975335281	1886,86120199883	1887,06215938629	1887,27140418511	1887,48767728440	1887,70977529946	1887,93662406208	1888,16732719689	1888,40118921408	1888,63771625890	1888,87659999972	1889,11769071807	1889,36096458620	1889,60648794877	1889,85437901974	1890,10476563848	1890,35773722663	1890,61329006827	1890,87126728202	1891,13129779799	1891,39274152694	1891,65464991051	1891,91575148610	1892,17447057820	1892,42898372186	1892,67731337276	1892,91745270781	1893,14750994926	1893,36585670727	1893,57126309907	1893,76300317901	1893,94091733389	1894,10542320816	1894,25747265143	1894,39845830490	1894,53007900977	1894,65417763037	1894,77256772504	1894,88686656646	1894,99835130288	1895,10785271502	1895,21569731243	1895,32170373264	1895,42523389986	1895,52529357294	1895,62067128134	1895,71009985188	1895,79242148049	1895,86673626003	1895,93251566955	1895,98966680918	1896,03853970543	1896,07987793536	1896,11472092006	1896,14427318998	1896,16976052794	1896,19229431384	1896,21276334022	1896,23176717920	1896,24959778255	1896,26626773035	1896,28157590607	1896,29519572222	1896,30676829604	1896,31598354100	1896,32263572963	1896,32664588016	1896,32805014796	1896,32695996145	1896,32350475654	1896,31777098473	1896,30975121031	1896,29931468630	1896,28620637469	1896,27007584586	1896,25053189520	1896,22721403758	1896,19986904377	1896,16841977963	1896,13301481428	1896,09405023504	1896,05215923556	1896,00816959932	1895,96303346703	1895,91773717836	1895,87320114967	1895,83018056616	1895,78917722249	1895,75037139577	1895,71358051507	1895,67824893394	1895,64347057598	1895,60804375860	1895,57055515531	1895,52948762755	1895,48334454524	1895,43078129467	1895,37073311081	1895,30252742930	1895,22596893314	1895,14138664627	1895,04963497227	1894,95204448261	1894,85032328445	1894,74641545453	1894,64232860896	1894,53994736757	1894,44085246290	1894,34616591977	1894,25644078615	1894,17160941878	1894,09099779640	1894,01340555332	1893,93724340710	1893,86071247897	1893,78200467791	1893,69950062097	1893,61194192149	1893,51855808217	1893,41913420750	1893,31401343445	1893,20403625509	1893,09042660276	1892,97464066377	1892,85819812279	1892,74251659303	1892,62876836254	1892,51777470861	1892,40994757562	1892,30528221929	1892,20339835260	1892,10362212380	1892,00509742907	1891,90691285831	1891,80822999291	1891,70839964710	1891,60705469737	1891,50417106866	1891,40009191904	1891,29551376095	1891,19143685728	1891,08908544078	1890,98980588557	1890,89495274235	1890,80577343616	1890,72330237686	1890,64827424679	1890,58106435516	1890,52166129913	1890,46967396035	1890,42437140408	1890,38475092280	1890,34962667683	1890,31772947412	1890,28780742580	1890,25871758749	1890,22950016738	1890,19942923253	1890,16803675648	1890,13510995120	1890,10066473820	1890,06490060589	1890,02814372770	1889,99078594117	1889,95322698968	1889,91582638308	1889,87886950088	1889,84255036276	1889,80697108819	1889,77215574687	1889,73807434864	1889,70467138816	1889,67189283358	1889,63970582420	1889,60810660569	1889,57711425025	1889,54675024234	1889,51700671911	1889,48780863461	1889,45897694353	1889,43020069747	1889,40102546153	1889,37086362997	1889,33902921905	1889,30479593961	1889,26747337530	1889,22649256619	1889,18148984658	1889,13237689136	1889,07938583816	1889,02308103358	1888,96433306438	1888,90425568554	1888,84411129608	1888,78519496288	1888,72870999462	1888,67564929971	1888,62669610087	1888,58215520118	1888,54192231604	1888,50549456059	1888,47202061396	1888,44038491716	1888,40931693499	1888,37751429729	1888,34376764700	1888,30707522870	1888,26673652158	1888,22241636057	1888,17417378784	1888,12245311136	1888,06803808854	1888,01197355091	1887,95546186762	1887,89974413110	1887,84597757976	1887,79512135236	1887,74784208496	1887,70444911178	1887,66486622377	1887,62864329448	1887,59500692834	1887,56294503446	1887,53131634799	1887,49897287949	1887,46488148384	1887,42823049365	1887,38850878780	1887,34554769562	1887,29952050849	1887,25089962451	1887,20037687310	1887,14875763104	1887,09684320676	1887,04531798545	1886,99465755751	1886,94507137438	1886,89648864496	1886,84858982256	1886,80087905769	1886,75278649087	1886,70378431305	1886,65349801903	1886,60179474067	1886,54883400390	1886,49507219851	1886,44121950992	1886,38815575971	1886,33681820352	1886,28807870403	1886,24262911775	1886,20089203239	1886,16296955379	1886,12863651781	1886,09737743920	1886,06845992258	1886,04103221978	1886,01422985687	1885,98727605345	1885,95956282713	1885,93070362593	1885,90055322362	1885,86919555034	1885,83690433235	1885,80408434823	1885,77120254203	1885,73871823057	1885,70702048495	1885,67637886986	1885,64691152202	1885,61857240722	1885,59115775133	1885,56433018055	1885,53765798733	1885,51066604801	1885,48289413545	1885,45395763857	1885,42360505601	1885,39176620692	1885,35858509883	1885,32443202495	1885,28989089800	1885,25572012084	1885,22278834245	1885,19198995355	1885,16414866423	1885,13992036911	1885,11970811453	1885,10360181625	1885,09135316186	1885,08239194653	1885,07588440297	1885,07082771335	1885,06616887927	1885,06093157088	1885,05433241410	1885,04586898287	1885,03536561971	1885,02296962676	1885,00909835598	1884,99434592997	1884,97936528035	1884,96474559863	1884,95090628101	1884,93802574661	1884,92601752910	1884,91455780708	1884,90315949953	1884,89127982186	1884,87844224240	1884,86435115313	1884,84897871124	1884,83260797695	1884,81582379582	1884,79945153678	1884,78445229674	1884,77179011408	1884,76229102796	1884,75651491238	1884,75465889476	1884,75650633735	1884,76142869574	1884,76844015352	1884,77629785998	1884,78363481632	1884,78910864327	1884,79154797443	1884,79007908070	1884,78421827850	1884,77392022616	1884,75957774187	1884,74197459243	1884,72219812016	1884,70152298352	1884,68128020183	1884,66272681438	1884,64693069832	1884,63468257852	1884,62644336154	1884,62233016853	1884,62213947722	1884,62540128677	1884,63145480474	1884,63953427260	1884,64885341218	1884,65867852657	1884,66838319030	1884,67748116221	1884,68563798181	1884,69266500829	1884,69850190086	1884,70319442048	1884,70687392361	1884,70974324672	1884,71207126987	1884,71419582202	1884,71653226781	1884,71958351335	1884,72394654119	1884,73031099865	1884,73944670601	1884,75217896737	1884,76935291176	1884,79179038251	1884,82024475235	1884,85536014317	1884,89764162655	1884,94744194589	1885,00496815988	1885,07030857406	1885,14347681211	1885,22446646174	1885,31330707654	1885,41011104874	1885,51510141796	1885,62861315928	1885,75106462830	1885,88290100488	1886,02451689814	1886,17616979622	1886,33789889570	1886,50946440231	1886,69032038555	1886,87962984813	1887,07632441813	1887,27920393098	1887,48706429758	1887,69883662397	1887,91371751013	1888,13127038191	1888,35148069611	1888,57475354476	1888,80184982906	1889,03376576120	1889,27156880394	1889,51621005150	1889,76833738231	1890,02813467422	1890,29520965143	1890,56854682307	1890,84653334960	1891,12705583643	1891,40765648180	1891,68572908823	1891,95873028774	1892,22437961455	1892,48082399275	1892,72674749599	1892,96141510322	1893,18464844206	1893,39674077299	1893,59832632870	1893,79022446113	1893,97328120403	1894,14822971680	1894,31558702022	1894,47559823243	1894,62823215811	1894,77322465642	1894,91015974987	1895,03857379973	1895,15806582793	1895,26839738834	1895,36956804251	1895,46185688772	1895,54582591430	1895,62228638515	1895,69223418675	1895,75676364422	1895,81697129910	1895,87386151673	1895,92826462156	1895,98077583220	1896,03172000622	1896,08114362222	1896,12883206219	1896,17434758770	1896,21708177054	1896,25631568863	1896,29128185894	1896,32122337119	1896,34544757217	1896,36337342181	1896,37457282955	1896,37880657345	1896,37605474512	1896,36654028472	1896,35074255139	1896,32939663121	1896,30347379521	1896,27413955789	1896,24268819514	1896,21045603349	1896,17871968631	1896,14858888697	1896,12090587276	1896,09616382871	1896,07445545782	1896,05545944102	1896,03846787689	1896,02245249348	1896,00616235677	1895,98824176779	1895,96735465818	1895,94230138608	1895,91211539107	1895,87613036586	1895,83401288101	1895,78576006019	1895,73166624154	1895,67226596361	1895,60826265725	1895,54045291767	1895,46965524255	1895,39664995883	1895,32213420859	1895,24669289763	1895,17078397340	1895,09473470025	1895,01874493600	1894,94289374559	1894,86714678401	1894,79136338760	1894,71530384535	1894,63863853678	1894,56096126980	1894,48180910035	1894,40069016745	1894,31711975948	1894,23066317292	1894,14098222501	1894,04788084198	1893,95134422183	1893,85156585430	1893,74895726710	1893,64413677188	1893,53789562888	1893,43114275747	1893,32483209464	1893,21987953855	1893,11707863356	1893,01702530197	1892,92006167160	1892,82624726407	1892,73536263217	1892,64694634749	1892,56036161973	1892,47488446604	1892,38980194008	1892,30450707985	1892,21857733276	1892,13182536164	1892,04431507119	1891,95634083848	1891,86837346837	1891,78098142703	1891,69473962653	1891,61013986035	1891,52751666813	1891,44700002317	1891,36850218902	1891,29174101874	1891,21629663920	1891,14169364723	1891,06749730237	1890,99341017871	1890,91935552303	1890,84553509359	1890,77245226462	1890,70089529071	1890,63188038319	1890,56655917467	1890,50609973655	1890,45155405961	1890,40372733150	1890,36306505630	1890,32957283200	1890,30278043102	1890,28175698233	1890,26517805408	1890,25143901663	1890,23880307566	1890,22556764978	1890,21023003258	1890,19163297310	1890,16907302820	1890,14235900981	1890,11181395535	1890,07822094310	1890,04271981503	1890,00666757090	1889,97147915725	1889,93846716325	1889,90869843138	1889,88288297440	1889,86130629028	1889,84381078358	1889,82982621899	1889,81844362416	1889,80852242163	1889,79881726929	1889,78810943090	1889,77532761336	1889,75964504507	1889,74054289977	1889,71783459321	1889,69165046250	1889,66238725879	1889,63063111803	1889,59706566841	1889,56237829555	1889,52717714451	1889,49192927502	1889,45692683375	1889,42228370468	1889,38796050852	1889,35381172996	1889,31964574846	1889,28528703623	1889,25062991840	1889,21567496476	1889,18054198238	1889,14545724863	1889,11071654681	1889,07662923489	1889,04345154291	1889,01131920066	1888,98019010028	1888,94980689397	1888,91968725473	1888,88914619322	1888,85735067722	1888,82340232737	1888,78643972981	1888,74574850826	1888,70086527238	1888,65166130286	1888,59839351777	1888,54171377656	1888,48263251207	1888,42243838798	1888,36258136953	1888,30453147054	1888,24962882639	1888,19894218690	1888,15315224987	1888,11247357037	1888,07662444039	1888,04484869023	1888,01598748850	1887,98859361461	1887,96107599461	1887,93185904231	1887,89953986294	1887,86302677691	1887,82164482326	1887,77519763830	1887,72397995541	1887,66874039982	1887,61059965241	1887,55093381353	1887,49123636316	1887,43297407233	1887,37745236062	1887,32570392618	1887,27841124084	1887,23586913756	1887,19798879624	1887,16433960238	1887,13422123567	1887,10675546261	1887,08098578136	1887,05597337269	1887,03087956135	1887,00502778284	1886,97794134793	1886,94935655537	1886,91921345998	1886,88762856548	1886,85485477433	1886,82123416840	1886,78714881853	1886,75297409299	1886,71903809822	1886,68559010519	1886,65278013863	1886,62065127030	1886,58914543109	1886,55812260417	1886,52739201970	1886,49675248774	1886,46603746200	1886,43515910262	1886,40414483341	1886,37315997285	1886,34251116152	1886,31262754355	1886,28401980011	1886,25722076778	1886,23271490804	1886,21086664107	1886,19185887896	1886,17565254778	1886,16197534889	1886,15034374127	1886,14011676168	1886,13057475060	1886,12101135012	1886,11082423556	1886,09958961352	1886,08710781268	1886,07341204022	1886,05873880851	1886,04346549919	1886,02802669519	1886,01282503137	1885,99815349241	1885,98414397832	1885,97075187037	1885,95777919229	1885,94493115749	1885,93189399424	1885,91841738520	1885,90438364321	1885,88984820433	1885,87504172775	1885,86033193960	1885,84615176613	1885,83290754986	1885,82088572707	1885,81017729223	1885,80063644753	1885,79188357787	1885,78335432044	1885,77438765386	1885,76433834338	1885,75269421876	1885,73917755004	1885,72381241860	1885,70694590018	1885,68921890960	1885,67149116545	1885,65473233414	1885,63989668852	1885,62780075008	1885,61902218063	1885,61383406620	1885,61218259362	1885,61370914130	1885,61781121719	1885,62373152583	1885,63066143628	1885,63784451605	1885,64466742068	1885,65072874673	1885,65588070829	1885,66024285933	1885,66419082672	1885,66832562443	1885,67343034892	1885,68042095475	1885,69029665931	1885,70409375849	1885,72284473494	1885,74754293790	1885,77911211208	1885,81837977736	1885,86605385258	1885,92270276138	1885,98874024834	1886,06441694338	1886,14982106537	1886,24489037534	1886,34943651992	1886,46318131412	1886,58580248462	1886,71698423081	1886,85646606516	1887,00408224115	1887,15978412570	1887,32363944077	1887,49580541543	1887,67647720321	1887,86581769812	1888,06387914946	1888,27052973114	1888,48539870055	1888,70785165216	1888,93700282512	1889,17176516208	1889,41093192795	1889,65327747706	1889,89766048032	1890,14311159133	1890,38888962626	1890,63449565434	1890,87964202935	1891,12418185829	1891,36801198309	1891,61096767342	1891,85272883509	1892,09275530906	1892,33026323924	1892,56424666979	1892,79354007218	1893,01691009805	1893,23315997255	1893,44122851343	1893,64026795153	1893,82968991204	1894,00917581602	1894,17865498763	1894,33825938836	1894,48826706545	1894,62904665887	1894,76101289593	1894,88459870249	1895,00024449087	1895,10840054286	1895,20953521753	1895,30414063979	1895,39272872459	1895,47581349524	1895,55387984831	1895,62734314723	1895,69650725892	1895,76153012182	1895,82240533541	1895,87896575695	1895,93091125054	1895,97785835940	1896,01940561740	1896,05520521590	1896,08503031007	1896,10882760920	1896,12674697794	1896,13914323173	1896,14654957825	1896,14962654193	1896,14909399360	1896,14565646710	1896,13993284676	1896,13240059331	1896,12336208456	1896,11293681115	1896,10107874647	1896,08761398325	1896,07229046351	1896,05482993976	1896,03497252750	1896,01250632011	1895,98727813852	1895,95918586857	1895,92815710457	1895,89412206796	1895,85699028956	1895,81663995267	1895,77292614224	1895,72571001277	1895,67490590025	1895,62053867828	1895,56280020220	1895,50209229057	1895,43904476541	1895,37450052890	1895,30946491944	1895,24502270249	1895,18223185781	1895,12200771913	1895,06501318029	1895,01157022285	1894,96160506882	1894,91463440625	1894,86979428457	1894,82590747410	1894,78158029756	1894,73531687974	1894,68563775086	1894,63119068622	1894,57084411071	1894,50375666272	1894,42941988061	1894,34767387141	1894,25869793103	1894,16297937847	1894,06126454073	1893,95449618050	1893,84374197447	1893,73011907811	1893,61472033222	1893,49854808885	1893,38246166108	1893,26714371667	1893,15308932007	1893,04061876630	1892,92991209844	1892,82105977663	1892,71412105368	1892,60917989653	1892,50638827137	1892,40598845271	1892,30830949715	1892,21373756389	1892,12266455249	1892,03542368100	1891,95222336162	1891,87309151381	1891,79784110606	1891,72606445087	1891,65715916116	1891,59038352481	1891,52493426624	1891,46003604493	1891,39503016190	1891,32945005705	1891,26307320314	1891,19594256528	1891,12835531621	1891,06082127295	1890,99399782582	1890,92861131828	1890,86537643309	1890,80492491997	1890,74775302211	1890,69419355846	1890,64441435158	1890,59844024703	1890,55619207219	1890,51753318118	1890,48231321369	1890,45039958829	1890,42168997334	1890,39610310782	1890,37355016156	1890,35389341527	1890,33690246183	1890,32221959950	1890,30934516228	1890,29765022969	1890,28641898914	1890,27491692092	1890,26247513430	1890,24857682297	1890,23292992864	1890,21551125032	1890,19657137453	1890,17659627153	1890,15622904637	1890,13616270928	1890,11702050325	1890,09924316732	1890,08300192636	1890,06815204177	1890,05423513750	1890,04053043532	1890,02614695848	1890,01014213498	1889,99164819602	1889,96998696055	1889,94475605494	1889,91587478021	1889,88358469314	1889,84840725371	1889,81106735071	1889,77239611973	1889,73322857782	1889,69431105879	1889,65623055350	1889,61937352220	1889,58391645467	1889,54984534497	1889,51699712743	1889,48511353421	1889,45389701380	1889,42305922075	1889,39235483766	1889,36159665588	1889,33065139432	1889,29941915082	1889,26780219149	1889,23567061378	1889,20283302193	1889,16901963276	1889,13388326488	1889,09702070963	1889,05801345121	1889,01648312363	1888,97215404281	1888,92491317686	1888,87485743140	1888,82231932592	1888,76786493289	1888,71226195714	1888,65642041054	1888,60131270629	1888,54788338287	1888,49696045061	1888,44918019109	1888,40493513101	1888,36435120200	1888,32729542259	1888,29341061983	1888,26216961567	1888,23293869409	1888,20503953139	1888,17780022688	1888,15058930355	1888,12283087307	1888,09400365023	1888,06363019278	1888,03126483194	1887,99648879067	1887,95891894347	1887,91823298366	1887,87420921754	1887,82677478253	1887,77605276156	1887,72239720298	1887,66640584344	1887,60890330454	1887,55089218576	1887,49347496113	1887,43775490216	1887,38472842177	1887,33518350257	1887,28961881544	1887,24819572323	1887,21073096799	1887,17673214535	1887,14547197136	1887,11609178923	1887,08772058825	1887,05959361264	1887,03115470118	1887,00212874652	1886,97255472055	1886,94277497742	1886,91338229387	1886,88513159009	1886,85882780775	1886,83520445882	1886,81480854543	1886,79790676348	1886,78442526080	1886,77393106817	1886,76565818283	1886,75857579555	1886,75149098274	1886,74317395705	1886,73249118333	1886,71853064763	1886,70070442283	1886,67881629377	1886,65308626529	1886,62412879926	1886,59288702846	1886,56053036104	1886,52832723514	1886,49750780664	1886,46913268349	1886,44398325427	1886,42248669369	1886,40468458121	1886,39024867629	1886,37854138174	1886,36871254888	1886,35981933502	1886,35095255079	1886,34135189490	1886,33049395546	1886,31814078852	1886,30434280566	1886,28939678609	1886,27376697913	1886,25798328552	1886,24253431448	1886,22777394893	1886,21385765393	1886,20071946090	1886,18809323784	1886,17557381907	1886,16270629758	1886,14908665432	1886,13445489819	1886,11876341131	1886,10220794408	1886,08521576163	1886,06839344006	1886,05244421736	1886,03807023367	1886,02587747881	1886,01630042525	1886,00955942421	1886,00565780829	1886,00441847756	1886,00555287985	1886,00874993893	1886,01376950204	1886,02052466200	1886,02913973700	1886,03997519330	1886,05361649545	1886,07082976095	1886,09249223339	1886,11950922020	1886,15273080780	1886,19288122368	1886,24051131694	1886,29598068283	1886,35947105878	1886,43102749192	1886,51061918831	1886,59820862034	1886,69381595454	1886,79756646289	1886,90971125693	1887,03061603854	1887,16071790613	1887,30045572622	1887,45018429234	1887,61008568391	1887,78009238218	1887,95983558681	1888,14862893744	1888,34549294740	1888,54921963765	1888,75847100432	1888,97189993694	1889,18827873291	1889,40661885055	1889,62626612914	1889,84695823725	1890,06883526674	1890,29239971937	1890,51842808740	1890,74784216293	1890,98155341452	1891,22029755183	1891,46447821243	1891,71403825960	1891,96837450376	1892,22630707905	1892,48610876625	1892,74559293598	1893,00225223851	1893,25343444739	1893,49653767776	1893,72920509514	1893,94949948300	1894,15604056898	1894,34809238661	1894,52559348629	1894,68912873043	1894,83984701265	1894,97933400436	1895,10945263542	1895,23216631156	1895,34936083866	1895,46268072220	1895,57339404623	1895,68229764150	1895,78967085785	1895,89528209526	1895,99844748287	1896,09813598029	1896,19311012059	1896,28208720312	1896,36390268108	1896,43765645309	1896,50282423521	1896,55932025515	1896,60750379801	1896,64812980579	1896,68225161947	1896,71109075152	1896,73589310880	1896,75779252843	1896,77770055917	1896,79623645232	1896,81370422445	1896,83011572899	1896,84525137172	1896,85874472127	1896,87017467452	1896,87914933727	1896,88536905295	1896,88866122325	1896,88898556212	1896,88641398670	1896,88109343455	1896,87320183822	1896,86290710693	1896,85033657590	1896,83556070903	1896,81859083600	1896,79938734156	1896,77787277391	1896,75394419453	1896,72748068637	1896,69834476109	1896,66637962911	1896,63140697476	1896,59323118188	1896,55165537909	1896,50651217485	1896,45770797966	1896,40527523402	1896,34942278162	1896,29057216012	1896,22936758530	1896,16665026707	1896,10339319455	1896,04059981789	1895,97917779577	1895,91980558023	1895,86281356756	1895,80810175536	1895,75511188491	1895,70286429188	1895,65005929769	1895,59523171290	1895,53693695780	1895,47394041732	1895,40537944790	1895,33087064717	1895,25054329118	1895,16499194407	1895,07515506142	1894,98213943888	1894,88702016742	1894,79065046147	1894,69351436484	1894,59564806783	1894,49664364699	1894,39573460243	1894,29194823856	1894,18429833239	1894,07198477276	1893,95456612950	1893,83207646477	1893,70506801802	1893,57457465366	1893,44200463805	1893,30898289869	1893,17717039638	1893,04809043783	1892,92298853462	1892,80274465342	1892,68784609512	1892,57841794025	1892,47429817658	1892,37513803726	1892,28050572997	1892,18997372519	1892,10317533876	1892,01982410507	1891,93969771768	1891,86259550070	1891,78828320528	1891,71644068831	1891,64662663207	1891,57827040005	1891,51069534628	1891,44317160574	1891,37499079814	1891,30555115506	1891,23443990502	1891,16150041817	1891,08687427527	1891,01101242259	1890,93465409498	1890,85877644915	1890,78452121951	1890,71310680497	1890,64573490350	1890,58350027668	1890,52731078611	1890,47782293560	1890,43539620243	1890,40006776352	1890,37154796212	1890,34923598732	1890,33225459360	1890,31950206325	1890,30971884181	1890,30156528584	1890,29370581502	1890,28489364173	1890,27404942405	1890,26032693382	1890,24315937567	1890,22228143695	1890,19772443240	1890,16978479212	1890,13896924653	1890,10592292327	1890,07134872712	1890,03592745433	1890,00024788690	1889,96475462016	1889,92971881159	1889,89523380240	1889,86123417088	1889,82753376713	1889,79387610376	1889,75998941693	1889,72563882326	1889,69066912474	1889,65503363947	1889,61880657792	1889,58217858120	1889,54543682306	1889,50893241113	1889,47303868947	1889,43810452044	1889,40440683002	1889,37210674794	1889,34121362058	1889,31156099236	1889,28279823352	1889,25440067893	1889,22569979055	1889,19593290553	1889,16430967314	1889,13008958225	1889,09266246321	1889,05162203139	1889,00682193895	1888,95840480182	1888,90679742067	1888,85266973998	1888,79686046097	1888,74027780510	1888,68378869961	1888,62811262163	1888,57373672745	1888,52086637014	1888,46941988579	1888,41906937119	1888,36932128834	1888,31962354742	1888,26948062623	1888,21855634960	1888,16674569099	1888,11420219813	1888,06131552125	1888,00864261944	1887,95680483763	1887,90636953046	1887,85773799594	1887,81106055204	1887,76619479435	1887,72271530618	1887,67997381213	1887,63719971232	1887,59362379301	1887,54860398500	1887,50173200481	1887,45290347386	1887,40234084516	1887,35056680668	1887,29833415915	1887,24652496366	1887,19603589643	1887,14766770163	1887,10203450814	1887,05950423893	1887,02017543326	1886,98388969682	1886,95027377480	1886,91880170022	1886,88886599087	1886,85984740500	1886,83117488992	1886,80237040145	1886,77307649248	1886,74306732752	1886,71224566180	1886,68062919764	1886,64832972878	1886,61552792119	1886,58244584179	1886,54931877860	1886,51636770571	1886,48377396161	1886,45165818241	1886,42006598738	1886,38896304520	1886,35824170533	1886,32774025228	1886,29727410500	1886,26667618652	1886,23584160777	1886,20477017053	1886,17359939637	1886,14262111752	1886,11227623665	1886,08312497400	1886,05579345026	1886,03090128814	1886,00897843131	1885,99038194409	1885,97522466044	1885,96332690501	1885,95420011154	1885,94706730322	1885,94092061177	1885,93461098402	1885,92696068784	1885,91688583671	1885,90351439113	1885,88628520963	1885,86501569784	1885,83992917449	1885,81163777665	1885,78108197701	1885,74943295285	1885,71796852614	1885,68793667035	1885,66042226468	1885,63623264726	1885,61581554315	1885,59921929152	1885,58610034213	1885,57577728498	1885,56732489233	1885,55969651978	1885,55185942779	1885,54292571613	1885,53226196410	1885,51956339940	1885,50488320642	1885,48861382570	1885,47142391895	1885,45416105898	1885,43773514525	1885,42300023319	1885,41065243080	1885,40115873658	1885,39472660428	1885,39131745122	1885,39070035813	1885,39253598327	1885,39647623636	1885,40226322208	1885,40981163439	1885,41926196891	1885,43099702070	1885,44562026542	1885,46390087644	1885,48669535437	1885,51485926864	1885,54916395165	1885,59023198466	1885,63850213774	1885,69422952939	1885,75752085317	1885,82839844914	1885,90688172519	1885,99307086321	1886,08721658763	1886,18976139176	1886,30134191515	1886,42274854750	1886,55484577807	1886,69846402289	1886,85427931700	1887,02270023833	1887,20378104820	1887,39717619434	1887,60214458598	1887,81760357578	1888,04222394987	1888,27455012715	1888,51312563804	1888,75660363027	1889,00382566088	1889,25385858961	1889,50598757654	1889,75967131698	1890,01447212925	1890,26997717752	1890,52572742125	1890,78116798511	1891,03562832260	1891,28833403506	1891,53844591369	1891,78511695567	1892,02755559551	1892,26508341629	1892,49717780125	1892,72349358116	1892,94386180564	1893,15826750264	1893,36681113289	1893,56966013957	1893,76699753428	1893,95897402230	1894,14566902797	1894,32706444564	1894,50303329786	1894,67334392729	1894,83767895526	1894,99566697714	1895,14692376022	1895,29109855810	1895,42792017657	1895,55723687024	1895,67904430896	1895,79349693918	1895,90090009183	1896,00168293177	1896,09635536778	1896,18545480033	1896,26949053018	1896,34889436351	1896,42398521415	1896,49495337573	1896,56186694081	1896,62469913041	1896,68337173457	1896,73780710288	1896,78797965132	1896,83395789957	1896,87592956376	1896,91420489510	1896,94919681001	1896,98137987452	1897,01123338725	1897,03917624135	1897,06550264934	1897,09032803733	1897,11355345017	1897,13485478482	1897,15370032446	1897,16939670171	1897,18115994018	1897,18820498432	1897,18984448025	1897,18558582639	1897,17521491028	1897,15885563442	1897,13699633518	1897,11047739496	1897,08043847016	1897,04822838908	1897,01528539225	1896,98299941617	1896,95257100649	1896,92488273580	1896,90039841454	1896,87910286866	1896,86049081163	1896,84360780571	1896,82714013522	1896,80954438389	1896,78920243081	1896,76458418381	1896,73439918095	1896,69771944317	1896,